121
424
561
561
561
561
546
433
309
213
119
367
561
561
536
533
458
311
179
89
74
437
561
519
494
484
375
240
145
140
498
560
561
560
556
460
324
222
136
309
560
561
560
561
555
453
335
244
159
211
561
561
561
561
561
500
387
297
220
200
549
561
561
561
561
503
375
267
176
153
506
561
561
561
553
443
304
208
138
432
561
557
540
548
466
359
287
390
560
561
560
560
560
502
403
322
441
561
561
561
560
560
524
432
355
307
560
561
561
561
561
561
507
444
402
561
561
561
561
561
561
505
443
378
561
561
561
561
561
561
541
475
404
317
473
561
561
561
561
561
548
481
404
320
228
276
561
561
561
560
561
533
443
357
272
180
86
225
560
561
560
561
557
468
352
258
170
82
0
310
561
561
561
560
495
357
227
133
58
0
235
549
561
535
542
496
353
212
116
55
376
561
561
549
554
480
338
210
121
46
375
561
561
561
561
515
381
258
167
78
312
561
561
560
560
527
397
266
169
82
120
510
560
560
549
525
407
258
155
60
274
561
557
490
502
449
313
199
119
401
561
561
561
561
508
379
272
193
464
561
561
561
561
561
496
403
317
420
561
561
561
561
561
523
431
347
305
561
561
561
561
553
466
349
258
180
165
435
542
520
490
462
377
283
223
200
427
534
514
486
469
398
312
254
210
419
561
561
561
560
511
422
345
284
212
333
561
561
561
561
551
476
391
320
249
165
272
551
561
561
561
554
478
383
306
232
150
193
506
561
561
561
556
479
370
281
203
115
220
527
561
556
549
518
410
292
211
134
314
560
561
522
526
483
366
257
180
298
561
561
561
561
561
485
378
296
241
531
561
561
561
561
554
470
382
304
278
561
561
561
561
561
540
451
361
284
222
514
561
561
561
561
532
431
335
253
163
401
561
561
560
560
500
384
287
207
211
512
560
553
542
516
414
305
233
237
548
561
560
560
561
494
388
302
223
305
561
561
561
561
560
487
389
307
228
199
474
561
561
560
538
456
356
275
205
129
184
454
550
542
512
472
382
289
216
150
72
188
439
502
480
462
424
335
252
200
134
298
500
524
484
477
426
325
238
176
137
414
560
560
560
555
485
375
283
209
127
313
560
561
561
561
535
429
322
236
155
123
464
561
561
561
560
486
361
255
171
89
381
561
561
556
544
462
324
206
117
153
491
561
534
523
508
400
256
157
233
561
561
560
560
546
435
305
211
186
539
560
560
560
560
517
407
314
224
271
560
560
560
560
548
442
329
257
189
106
20
145
480
561
549
521
471
366
260
184
119
94
368
497
481
456
447
377
288
229
200
433
561
557
529
513
440
343
271
217
280
560
561
561
560
560
529
440
359
279
353
560
560
553
528
480
380
283
214
142
302
476
491
458
452
411
329
264
207
340
516
541
508
491
444
353
270
209
145
281
508
561
547
530
490
402
313
244
178
111
367
559
561
549
538
476
369
273
195
115
133
450
560
539
507
481
382
258
181
123
271
551
560
517
515
471
348
225
143
134
489
560
560
560
560
481
347
236
150
237
561
561
561
561
542
429
291
185
87
321
561
561
529
520
452
309
179
88
203
543
561
526
526
500
383
261
168
334
561
561
561
560
543
420
284
183
268
560
560
560
560
538
420
287
186
144
501
560
560
559
537
422
271
157
65
192
549
560
539
527
473
341
227
150
266
561
561
558
561
517
378
246
162
124
502
561
561
561
561
521
396
281
189
110
461
561
561
561
561
506
373
258
166
74
409
560
561
560
558
464
312
177
70
0
224
550
558
484
464
391
251
128
30
113
506
560
507
478
424
282
138
33
0
409
560
561
561
561
496
359
247
155
293
561
561
561
561
561
483
354
249
150
413
561
561
561
561
522
395
283
196
314
560
561
560
560
546
436
323
236
391
560
560
560
560
559
466
355
269
241
560
560
560
560
560
524
411
307
217
207
560
560
560
560
560
472
334
221
125
93
465
561
561
542
505
385
250
164
88
353
561
561
534
524
433
288
171
90
157
555
561
561
560
536
422
303
209
131
163
558
560
560
555
495
342
177
56
0
145
499
557
480
446
383
245
123
29
84
495
561
546
523
470
332
197
104
19
138
561
561
561
561
554
438
297
181
76
0
7
462
561
561
561
556
454
310
192
87
0
0
0
423
560
560
559
537
406
224
73
0
0
0
137
516
549
457
469
430
291
169
96
20
356
560
560
560
560
549
432
299
192
148
561
561
561
561
561
540
416
290
190
305
561
561
561
561
561
491
359
242
126
212
561
560
560
560
551
432
276
163
77
423
561
560
560
560
508
370
254
171
409
560
560
560
560
560
459
336
240
135
445
560
560
560
560
560
475
359
268
166
245
561
561
561
561
561
472
337
224
118
37
452
561
561
561
550
436
298
210
139
374
560
560
560
560
515
368
232
137
54
418
560
560
560
560
552
439
312
205
105
43
497
560
560
560
560
522
385
248
129
16
82
548
561
561
561
544
412
251
145
54
314
561
561
558
561
501
353
222
129
229
561
560
560
560
560
527
413
326
245
524
560
560
560
560
557
441
303
183
96
471
560
560
560
558
474
327
211
114
396
560
560
541
536
443
295
177
86
391
561
561
561
561
524
392
270
173
106
496
560
561
561
560
464
307
175
70
0
184
553
560
544
538
477
336
208
119
139
512
560
560
546
513
388
244
127
27
0
263
560
560
560
560
542
433
327
242
287
560
560
560
561
561
492
370
272
183
403
561
560
561
561
559
470
354
258
170
328
561
560
561
561
554
456
334
202
89
18
385
560
560
543
539
450
302
174
81
0
123
499
560
455
431
438
347
203
69
0
0
238
544
530
424
439
383
245
116
26
15
445
561
550
502
506
412
259
122
23
0
333
561
561
554
561
494
344
199
90
9
127
560
560
560
560
560
485
345
225
129
221
560
560
560
560
559
459
309
191
121
511
560
560
560
560
520
388
266
204
560
560
560
560
560
546
435
330
242
504
560
561
561
560
560
477
358
261
383
561
560
560
561
549
430
290
185
229
560
560
560
560
560
484
365
264
474
560
560
560
560
560
467
344
239
246
560
560
560
560
560
521
403
302
209
376
560
560
560
560
560
480
351
245
143
432
561
560
561
560
500
365
264
181
366
560
560
560
560
502
368
247
159
201
560
560
560
560
546
448
328
234
151
254
554
560
559
540
493
387
279
195
120
170
471
560
538
505
467
369
257
173
102
150
441
530
490
462
440
359
265
197
195
468
560
539
514
501
416
306
225
159
398
560
560
560
560
528
422
322
245
223
533
560
560
560
560
537
451
375
332
560
560
560
560
560
560
490
394
302
434
560
560
560
560
560
447
298
193
105
284
560
560
559
555
509
400
285
194
112
97
432
560
507
458
422
318
190
85
7
33
371
487
412
382
387
317
233
164
164
472
560
503
466
457
367
251
163
146
500
560
560
561
560
524
407
314
255
537
560
560
561
560
560
499
388
278
389
560
560
560
560
556
474
378
302
379
560
560
560
560
552
489
409
287
305
560
560
560
560
560
480
366
266
171
277
560
560
560
560
554
464
344
239
147
217
560
560
553
539
489
354
212
105
18
0
332
555
518
450
424
311
150
18
0
0
271
492
439
361
357
267
129
31
0
291
560
544
457
470
399
247
118
34
305
560
560
560
560
519
378
242
139
245
560
560
560
560
560
466
326
277
269
560
560
560
560
560
484
335
206
85
338
560
559
500
501
432
309
213
163
518
560
560
560
554
455
320
220
125
400
560
560
560
560
535
410
281
175
147
545
560
560
557
545
449
307
166
41
198
560
560
551
538
466
319
187
100
133
547
560
560
560
539
412
262
142
47
0
376
560
560
560
559
469
315
177
65
0
0
329
560
560
549
531
429
267
122
10
0
0
0
390
560
552
504
479
358
191
48
0
0
0
373
560
522
447
427
311
141
0
0
0
357
560
529
458
460
359
199
60
0
205
560
560
560
560
547
424
275
164
70
414
560
560
560
560
558
451
322
219
145
560
560
560
560
560
529
391
260
154
242
560
560
560
560
550
430
302
206
392
560
560
560
560
557
455
340
245
500
560
560
560
560
560
487
387
294
488
560
560
560
560
560
490
372
267
245
560
560
560
560
560
509
396
300
210
520
560
560
560
560
555
466
375
298
560
560
560
560
560
560
486
390
326
354
560
560
560
558
534
457
339
196
65
15
428
560
560
549
505
378
231
135
47
367
560
543
470
446
342
180
37
0
31
446
560
560
522
475
342
182
58
0
0
249
560
560
532
501
413
251
97
0
0
0
391
560
558
509
488
366
182
32
0
0
124
546
560
500
471
431
297
156
55
4
449
560
560
552
557
458
297
156
49
363
560
560
560
560
543
413
268
160
116
560
560
560
560
560
503
345
206
94
361
560
560
560
560
522
380
246
156
531
560
560
560
560
506
359
227
124
444
560
560
560
560
558
454
323
214
125
519
560
559
560
560
526
398
279
182
81
295
560
560
560
560
537
404
262
154
66
0
390
560
560
561
560
499
353
225
128
245
560
560
560
560
560
509
384
267
164
262
560
560
560
560
560
545
444
345
247
218
560
560
559
559
560
552
448
335
234
244
560
560
560
560
560
493
366
270
195
515
560
560
560
560
529
416
313
208
362
560
560
560
560
560
478
345
222
113
244
560
560
560
560
557
465
340
235
144
67
354
560
560
559
560
545
427
294
186
87
93
515
560
560
560
539
423
269
154
62
243
560
560
549
549
497
361
226
125
207
560
560
560
560
552
443
305
199
123
474
560
560
560
560
511
378
254
152
73
446
560
559
560
560
496
357
236
142
50
359
560
560
560
560
500
360
231
130
26
272
560
560
558
552
489
358
240
149
178
559
560
560
560
526
402
262
156
85
428
560
560
560
560
532
406
284
190
107
444
560
560
559
560
525
400
280
184
107
458
560
560
560
560
515
393
297
205
232
560
560
560
560
549
449
335
243
350
560
560
560
560
538
416
293
197
292
560
560
560
560
560
487
364
259
240
560
560
559
559
543
435
302
202
113
348
538
537
474
438
355
240
154
106
344
484
476
428
398
323
225
146
87
94
367
496
505
470
441
369
275
197
135
72
267
463
497
465
445
402
325
259
206
182
409
525
519
488
473
410
321
246
188
133
370
560
560
559
560
523
432
340
266
193
275
560
560
560
560
553
473
366
277
202
120
285
560
560
560
560
543
453
348
268
199
471
560
560
560
560
535
427
316
228
146
268
560
559
560
560
551
454
326
218
134
64
414
559
559
560
556
483
351
226
128
38
148
532
560
547
526
491
376
248
161
87
285
560
560
536
536
487
359
226
126
73
460
560
560
560
560
499
370
255
167
120
502
559
559
560
559
476
347
251
190
214
559
560
559
556
530
423
303
209
133
426
560
560
560
560
548
442
324
222
116
344
560
560
560
560
502
361
226
122
40
0
358
560
560
555
544
452
315
210
125
26
334
560
559
538
530
436
278
144
46
0
0
394
560
560
560
559
487
341
211
103
0
0
108
557
560
560
560
538
417
265
145
47
0
0
409
560
560
544
538
442
283
144
38
0
79
541
560
559
560
537
415
254
122
20
0
70
547
559
559
560
553
443
287
152
52
0
226
560
560
558
560
525
382
240
134
107
549
560
560
560
560
500
380
283
214
141
543
560
560
560
560
559
463
346
247
155
93
509
559
559
559
559
522
401
287
193
104
15
28
431
560
560
535
522
457
355
270
205
141
156
453
548
498
456
456
411
324
227
154
113
78
367
535
536
500
499
467
396
327
275
230
175
321
535
558
525
515
498
432
353
290
242
187
297
537
559
544
535
525
459
372
303
248
186
340
560
560
557
560
550
479
393
332
276
337
560
560
560
560
560
518
427
346
281
214
367
559
560
560
559
559
550
477
401
324
246
173
506
559
559
559
559
559
509
418
335
250
163
101
485
560
560
560
560
556
465
361
283
213
140
284
560
560
560
560
560
500
387
295
223
145
437
560
560
560
559
559
483
378
292
212
140
500
559
559
559
559
558
472
369
293
219
454
560
559
559
560
560
495
398
319
284
560
560
560
560
560
542
443
355
372
560
560
560
560
538
442
313
184
90
389
560
548
476
420
289
113
0
0
4
254
252
97
0
0
0
0
7
38
296
464
485
464
466
430
368
313
289
474
542
521
478
457
403
326
264
219
178
373
482
487
453
434
400
338
279
229
175
118
60
172
397
455
447
430
417
368
305
255
209
160
105
124
394
500
506
484
479
436
360
289
229
170
101
248
489
543
511
488
466
391
302
224
158
94
164
469
548
516
492
488
419
286
179
118
62
174
536
559
555
550
538
431
270
154
73
0
84
513
559
530
472
457
354
204
101
21
0
140
534
557
455
444
444
330
145
20
77
560
560
560
560
560
560
512
409
318
505
560
560
559
559
559
559
480
379
290
529
559
559
559
559
560
492
379
290
343
559
559
554
541
536
459
346
255
187
347
560
560
528
512
491
416
322
248
194
156
408
536
515
474
470
435
357
277
218
169
211
462
526
482
454
452
398
310
233
176
126
73
351
521
503
452
466
445
367
284
230
183
368
559
559
523
535
524
443
342
267
218
194
491
560
560
560
560
560
497
410
343
281
326
560
559
560
560
560
540
452
371
310
322
559
559
559
559
559
554
483
416
364
559
559
559
559
560
559
551
483
417
358
329
559
560
560
559
560
560
530
454
382
311
272
560
560
560
560
560
558
476
377
294
214
150
482
560
559
560
559
506
381
274
202
211
521
559
536
516
523
436
315
231
246
559
559
559
559
560
499
382
291
222
336
559
560
560
560
560
544
457
370
295
242
546
560
560
560
560
548
462
372
297
214
124
152
502
559
559
559
553
475
358
258
176
93
48
393
559
539
495
482
404
286
195
136
64
223
535
559
519
511
482
377
264
184
122
47
273
559
560
560
560
531
425
311
229
159
83
163
476
559
520
490
465
377
269
185
120
54
0
231
453
463
414
417
393
315
244
206
172
208
458
539
506
489
479
400
297
234
193
163
420
560
547
516
518
473
384
303
243
186
398
560
559
529
531
487
385
293
239
218
482
559
548
532
539
471
365
291
249
504
559
559
559
559
535
440
357
300
294
559
559
559
559
559
559
495
419
352
280
532
560
560
560
560
560
534
463
394
308
454
559
560
560
560
560
491
374
279
202
144
468
559
559
534
519
431
300
190
115
20
267
548
548
469
457
394
266
158
89
183
509
559
482
454
432
326
209
139
124
447
560
559
527
516
443
323
230
149
388
560
560
529
512
452
332
227
139
237
534
559
521
493
457
349
223
119
13
234
525
550
477
461
410
295
180
94
17
333
543
496
407
406
335
194
73
0
128
485
554
448
425
416
310
182
94
85
482
560
560
542
549
467
318
200
108
365
559
559
539
555
516
401
280
191
232
559
559
559
559
559
463
326
226
343
559
559
552
559
560
463
327
202
323
559
560
560
560
559
443
266
132
262
559
559
554
552
512
385
249
148
252
559
559
521
508
471
347
204
108
86
466
559
526
492
489
386
232
113
75
453
559
555
534
548
463
365
261
139
445
560
559
559
560
511
381
284
301
560
560
560
559
560
560
524
455
560
560
559
559
559
559
559
527
500
559
559
559
559
559
555
480
392
462
559
559
559
559
532
441
358
331
543
559
541
519
502
422
326
254
423
559
560
551
540
478
377
288
318
555
560
556
540
504
416
322
238
278
521
559
527
489
437
330
221
137
59
51
339
442
405
375
353
272
181
127
76
291
437
419
385
388
333
244
179
131
279
499
538
507
496
456
367
281
222
160
362
556
559
526
515
460
354
253
173
91
185
480
550
502
483
451
348
241
177
112
312
559
558
508
512
460
343
234
160
99
414
559
559
559
559
508
388
282
205
122
351
559
559
560
559
532
419
305
222
145
159
530
559
560
559
556
465
342
244
164
74
273
559
559
539
537
479
344
212
123
41
209
546
559
508
512
466
342
237
165
304
559
559
559
559
552
451
345
261
315
559
559
560
559
560
479
368
278
187
415
559
559
559
559
508
386
281
197
113
34
393
559
559
553
544
446
311
204
119
26
63
470
559
525
501
465
331
181
74
0
0
184
523
541
453
461
414
293
191
122
175
553
560
548
546
517
387
257
178
111
397
559
559
559
559
551
452
354
283
304
559
559
559
559
559
530
432
345
263
419
559
559
559
559
558
478
387
307
230
316
559
559
559
559
547
399
266
189
114
400
559
559
558
559
485
351
237
150
232
559
557
450
412
349
202
66
0
71
458
559
503
462
418
299
166
64
137
494
559
494
479
412
269
174
127
488
559
559
554
560
492
325
182
274
559
560
560
559
559
521
427
322
440
559
559
559
559
559
526
443
405
559
559
559
559
555
475
363
246
238
456
488
442
417
374
258
167
117
119
345
406
360
335
319
239
139
76
31
113
337
370
323
321
305
242
183
141
158
365
411
366
357
349
241
74
0
17
268
427
421
394
403
367
279
177
119
199
432
476
431
417
410
336
246
171
87
338
498
472
413
427
390
313
254
216
419
559
557
518
519
459
367
289
232
374
559
559
559
559
558
482
383
302
239
526
559
559
555
559
474
231
107
174
238
551
559
559
559
559
559
559
559
559
551
522
559
559
559
559
559
559
559
544
489
413
391
559
559
559
559
559
559
526
451
376
295
328
559
559
559
559
559
542
456
367
288
202
301
559
559
559
559
556
472
361
271
196
120
389
559
560
559
559
501
382
274
201
134
328
559
560
545
555
512
400
291
216
153
428
559
559
559
559
539
441
343
269
186
396
559
559
559
559
547
452
350
267
190
231
559
559
559
559
559
493
392
304
224
134
271
559
559
559
559
540
437
324
234
152
145
483
559
559
559
548
460
343
285
241
404
559
559
559
559
521
403
304
241
256
559
559
559
559
559
514
398
290
185
232
556
559
559
559
529
423
316
239
194
476
559
554
518
482
370
233
125
42
0
202
551
559
559
559
520
404
287
192
101
9
140
522
559
559
559
515
393
255
143
44
0
34
409
555
527
483
444
331
207
141
86
181
525
559
534
522
484
355
221
128
51
311
559
559
559
559
524
403
283
193
100
343
559
559
559
559
524
397
266
165
65
279
559
559
547
524
447
295
162
75
49
420
559
534
496
477
368
229
134
111
493
559
559
559
559
484
361
258
167
317
559
559
559
559
555
467
346
249
177
495
559
559
559
559
498
316
176
74
313
550
542
469
452
381
237
102
0
264
540
553
505
498
407
270
176
221
559
559
559
559
543
427
299
209
272
559
559
559
559
559
502
389
296
204
405
559
559
559
559
554
465
365
274
168
278
559
559
559
559
515
399
281
194
99
278
559
559
532
524
459
335
227
131
300
559
559
559
559
520
400
286
201
109
328
559
559
559
559
552
453
335
237
142
110
500
559
559
559
559
479
348
233
129
27
30
443
559
559
546
510
391
242
122
32
0
250
548
555
492
479
405
259
135
47
125
535
559
559
559
531
405
259
147
51
194
559
559
559
559
542
421
280
171
77
189
559
559
559
559
529
405
269
160
67
91
501
559
559
553
520
395
245
133
40
111
507
559
543
529
500
381
251
156
167
546
559
559
559
547
441
