762 761
757 754
680 757
539 762
455 761
404 756
344 758
270 761
219 761
202 754
172 757
125 762
94 761
82 756
68 758
50 761
43 761
42 754
13 757
8 761
11 761
28 756
10 758
8 761
7 761
24 754
2 757
7 762
9 761
20 756
5 758
7 761
8 760
24 754
2 757
7 762
8 761
20 757
5 758
7 760
8 758
25 754
4 757
8 761
8 761
19 756
49 758
130 761
234 761
382 756
488 757
600 762
682 761
754 757
747 758
747 761
749 761
757 756
750 757
741 762
738 761
755 758
737 758
716 761
700 761
712 756
677 758
660 761
638 761
639 757
612 758
600 761
580 760
568 756
515 758
489 762
470 761
454 758
402 758
372 761
349 761
349 756
301 758
269 761
245 761
241 758
214 759
195 761
169 760
162 756
126 758
114 762
98 761
85 757
54 759
37 761
29 757
33 756
7 758
8 762
9 761
20 758
8 759
8 753
9 746
24 756
7 758
8 757
9 753
19 757
8 758
8 745
26 753
99 756
174 758
293 762
424 761
559 758
633 759
699 761
742 761
757 756
748 759
745 761
739 761
750 758
732 759
732 761
736 760
707 756
662 765
646 762
650 761
630 758
593 762
579 761
590 760
575 756
524 763
490 761
480 761
458 758
417 762
381 758
364 753
331 756
283 764
261 761
247 760
211 757
174 753
154 745
158 746
129 756
79 753
59 747
56 746
41 757
12 742
8 732
28 731
24 756
7 735
9 724
22 706
19 704
7 671
8 663
41 680
84 753
164 761
283 761
426 760
546 758
623 762
698 761
755 760
758 756
748 763
741 761
750 760
748 758
732 762
720 758
714 754
685 756
638 763
620 762
619 760
594 758
559 756
547 749
558 749
538 756
485 759
455 752
445 749
419 757
374 744
333 735
313 732
280 755
232 733
204 724
181 705
148 699
111 665
92 645
89 629
60 627
14 579
8 556
20 538
19 533
8 486
8 454
25 431
24 434
7 393
9 367
20 339
19 329
7 297
8 273
24 255
24 293
48 347
148 450
284 567
402 690
505 750
611 752
723 755
759 757
752 762
746 761
759 760
755 758
739 755
730 747
727 754
696 756
650 748
631 749
621 756
594 757
565 737
559 735
578 754
557 756
509 739
486 733
479 746
454 735
406 692
363 661
345 660
306 634
255 585
223 556
196 536
164 505
129 463
106 436
96 432
61 401
18 355
8 334
20 329
19 301
8 257
8 232
25 236
9 220
8 183
9 154
20 146
5 130
8 99
8 74
25 75
3 54
8 23
8 13
20 24
6 18
7 5
8 18
45 103
93 205
203 314
332 447
480 597
584 711
675 749
737 748
757 754
751 758
749 761
748 757
754 756
729 757
720 739
702 736
698 754
639 756
616 735
603 736
609 754
578 751
557 723
543 717
554 742
513 733
486 691
452 666
434 655
389 627
358 580
323 545
299 532
240 500
209 450
183 422
163 402
112 363
83 317
60 293
56 293
9 267
9 219
9 195
21 190
8 168
8 128
9 98
27 92
8 71
8 38
9 22
21 26
8 19
8 6
9 9
29 29
8 30
11 13
11 52
24 61
74 144
185 242
306 368
458 525
556 648
665 728
743 755
760 757
744 758
740 743
742 741
757 755
721 757
701 739
680 734
672 750
626 734
593 698
574 689
582 713
554 713
545 685
534 679
532 683
502 668
487 636
465 613
446 606
386 575
356 525
328 497
306 478
246 432
206 378
201 349
168 346
117 301
81 262
65 232
41 221
10 183
8 156
31 127
27 128
8 88
9 76
24 55
21 39
9 5
8 6
31 9
27 28
8 5
9 9
23 8
21 20
8 4
9 7
33 31
107 147
208 256
343 390
483 514
596 642
681 723
743 745
756 749
758 756
747 755
740 749
755 747
755 757
721 739
690 726
688 721
663 742
619 711
597 700
594 690
589 706
569 687
564 680
573 670
551 681
500 636
480 619
475 600
440 586
385 532
355 501
359 481
345 494
319 466
313 492
157 338
107 306
73 264
43 230
34 200
28 200
9 156
9 139
23 113
22 99
9 61
9 34
29 16
28 31
9 10
9 9
23 9
24 23
9 10
11 9
32 11
33 34
88 117
198 157
195 48
85 26
185 133
378 320
579 486
715 647
763 762
699 641
713 665
760 752
750 745
744 740
757 741
758 756
739 746
718 738
709 728
690 732
661 705
647 692
652 685
636 701
609 676
609 675
615 667
591 659
553 622
532 601
532 606
500 579
438 521
396 482
374 462
338 426
289 374
245 330
223 315
190 284
146 239
118 210
94 189
64 155
31 116
12 93
23 92
22 58
7 14
7 7
18 20
17 17
7 5
7 6
23 27
21 23
7 7
8 7
17 19
16 16
7 5
7 6
32 38
85 110
210 218
365 366
537 523
659 646
755 736
760 751
757 754
765 757
763 761
759 761
760 756
763 758
758 754
753 745
757 754
751 757
749 752
751 753
759 756
748 758
745 742
745 740
757 754
747 756
733 741
729 737
736 750
700 734
664 689
627 660
617 658
563 633
530 583
491 547
465 525
422 494
395 451
365 420
348 410
295 380
274 339
254 319
244 309
204 278
180 238
164 219
166 224
129 206
106 166
84 143
80 135
54 118
39 85
15 61
22 52
4 36
7 23
39 55
133 142
248 258
408 389
581 541
754 701
763 757
763 761
762 761
760 758
763 759
763 757
760 750
758 756
757 758
753 755
753 752
760 757
744 757
744 739
748 740
758 756
748 757
744 745
745 745
759 757
744 755
736 731
726 723
736 741
691 723
665 678
629 648
615 637
570 606
540 561
507 527
485 514
431 481
401 434
375 407
355 388
308 352
280 311
261 289
257 289
215 266
186 222
165 200
161 193
133 174
114 140
111 116
87 115
58 88
46 73
55 67
81 101
157 163
298 287
478 427
634 587
740 684
762 758
758 761
760 758
763 763
762 754
755 749
758 756
755 756
752 752
758 747
753 753
734 732
733 726
754 720
746 735
714 707
715 705
729 706
726 715
696 683
675 661
679 647
658 653
610 609
573 575
546 541
514 522
467 475
432 437
408 398
365 382
314 331
281 300
263 271
228 249
186 205
165 182
164 163
141 160
98 116
73 94
71 75
55 68
30 37
8 13
23 9
21 22
37 36
125 116
263 227
407 370
546 491
687 614
756 727
759 756
763 763
763 761
760 759
761 757
762 755
752 743
756 740
758 756
743 743
743 740
750 732
748 743
737 729
740 730
757 734
757 753
732 728
732 726
745 718
729 713
686 669
658 640
654 620
624 615
568 561
527 524
505 491
475 474
430 427
396 391
378 360
346 350
306 310
285 290
274 267
244 249
211 213
194 193
196 181
188 190
193 192
271 259
409 368
554 503
677 604
759 705
757 754
759 757
763 762
763 761
760 756
761 758
759 752
755 746
758 754
759 756
746 744
744 742
759 756
760 757
747 737
743 732
757 753
759 756
745 741
743 735
749 738
742 730
719 698
702 675
694 670
656 641
607 593
581 568
566 552
528 514
478 464
448 434
439 429
396 404
359 356
328 326
319 317
286 297
266 261
242 236
237 236
203 221
191 190
190 186
237 223
306 293
435 389
586 514
749 658
765 756
763 761
762 761
760 757
765 758
763 759
761 751
757 754
765 757
761 761
760 758
760 756
760 758
758 749
758 748
758 756
765 757
759 755
758 753
760 757
764 758
755 743
749 738
757 756
751 756
749 745
745 739
753 746
737 739
735 712
731 694
733 697
691 679
678 644
666 629
664 624
625 597
601 560
587 544
590 552
548 532
517 487
491 464
483 457
448 435
425 395
418 383
477 438
551 517
670 598
758 703
760 757
763 758
763 761
762 757
758 756
763 758
763 762
762 761
760 758
764 759
763 754
761 748
758 756
763 758
761 759
760 756
760 757
758 758
756 746
757 744
757 755
754 757
749 743
749 742
760 753
742 733
725 694
718 675
721 679
674 651
644 599
611 568
598 554
561 528
539 490
515 463
500 458
456 436
435 400
416 381
401 367
357 336
333 300
336 283
310 284
265 247
235 218
227 198
208 193
190 169
217 187
309 246
420 363
539 464
675 581
758 682
760 757
763 758
763 753
756 752
759 756
763 761
759 754
758 751
760 757
757 747
750 736
755 734
758 756
748 745
749 745
758 742
758 752
743 735
744 732
756 732
757 748
733 715
730 701
739 684
723 674
681 629
654 600
654 581
634 584
590 542
562 516
551 494
533 489
498 453
479 432
483 419
488 444
516 464
597 529
704 604
760 690
762 743
761 748
756 752
759 756
763 763
763 757
760 753
760 758
759 747
753 738
756 734
758 755
742 737
745 737
758 735
756 744
741 727
742 725
756 724
758 735
734 699
729 684
736 669
720 660
677 613
644 580
640 558
614 558
569 515
540 488
521 461
498 451
467 419
448 398
444 378
414 377
378 345
365 335
366 322
343 312
305 276
288 258
291 250
275 254
236 219
209 197
205 182
193 181
170 155
153 135
146 120
133 126
109 105
101 97
99 84
99 92
146 124
265 219
433 368
584 495
701 599
759 716
760 756
761 758
763 761
762 754
758 754
760 757
763 762
763 761
760 756
761 758
763 751
760 747
758 754
759 756
756 753
754 751
760 756
761 758
756 744
750 738
758 754
759 756
753 746
749 739
757 743
752 734
737 703
734 682
733 678
693 657
670 619
661 606
657 597
614 567
584 526
565 506
567 511
525 493
495 449
466 426
460 421
421 398
400 361
375 336
367 338
328 324
329 307
367 334
456 405
547 489
666 571
753 669
758 754
765 757
763 762
762 760
760 756
765 758
763 753
760 746
758 756
763 757
757 754
756 752
760 756
752 758
750 739
751 738
757 754
753 756
747 739
748 740
759 754
748 740
736 705
729 688
744 698
706 678
681 631
653 603
644 592
610 569
591 533
567 507
556 503
510 485
495 453
478 436
468 427
424 400
401 368
386 353
387 359
344 340
315 299
295 283
290 279
256 257
234 222
208 199
207 205
206 220
270 256
373 337
504 446
616 549
738 636
760 728
758 756
763 758
763 758
762 755
760 758
763 758
758 744
752 738
757 755
749 757
748 747
748 742
756 751
742 749
744 733
748 734
757 751
738 742
735 714
736 704
741 700
701 668
672 624
650 600
643 600
591 570
551 518
516 486
502 473
461 445
430 403
418 371
380 367
338 336
320 318
317 301
292 289
256 254
242 240
250 231
236 239
197 203
176 189
177 179
167 182
147 156
130 138
130 124
117 135
96 114
111 127
172 163
258 245
371 332
508 444
660 554
757 669
763 728
762 753
759 756
761 757
763 754
757 743
755 741
758 756
752 751
750 748
758 744
758 755
744 739
747 736
756 737
758 755
743 735
743 737
758 737
758 738
721 694
707 671
715 657
696 661
644 614
609 583
598 559
579 552
546 517
524 490
514 466
489 469
454 437
438 422
430 403
400 390
367 358
353 344
359 335
339 338
293 300
274 286
277 277
266 277
236 245
213 222
215 211
203 222
176 198
164 186
163 174
187 201
251 246
363 333
509 439
625 559
710 633
753 722
760 754
761 758
762 752
754 743
758 744
759 756
756 751
751 746
759 741
758 751
745 735
746 732
756 730
757 750
736 731
739 735
758 734
753 732
729 701
727 687
743 681
729 687
685 643
661 623
662 610
649 610
623 579
602 556
600 563
585 554
553 526
541 514
531 505
503 481
471 449
451 430
444 430
408 402
350 355
324 334
316 329
294 306
255 265
224 239
224 245
210 236
188 213
193 213
247 257
344 333
452 416
578 517
709 630
759 714
757 750
758 756
760 756
761 758
755 745
749 738
757 754
757 756
750 744
740 732
751 740
739 740
741 720
742 713
756 727
732 731
731 714
738 717
749 719
715 697
697 664
686 649
689 656
641 632
603 582
576 558
571 554
535 532
507 491
473 459
463 460
421 444
403 410
382 390
365 377
331 359
321 335
311 324
315 333
269 313
252 282
245 276
257 287
269 299
322 323
407 391
534 503
619 596
712 656
754 721
760 756
757 757
754 746
754 743
757 755
749 756
743 739
741 738
755 744
726 721
711 688
709 682
731 706
707 704
697 675
688 668
703 679
683 672
675 645
656 626
651 632
609 617
589 583
563 560
541 542
492 512
467 477
448 458
459 473
398 441
362 396
348 381
341 378
312 358
290 321
264 300
265 310
237 303
232 279
244 284
295 327
366 390
467 457
571 540
678 636
725 698
751 737
753 748
760 757
752 757
741 731
736 725
751 745
710 725
680 677
646 646
638 639
611 622
604 596
596 583
599 595
570 588
567 567
563 561
559 557
516 529
490 492
490 474
457 471
397 424
350 382
325 350
292 333
246 288
210 253
188 218
152 211
112 173
92 158
83 135
48 114
13 79
6 66
26 50
24 57
15 48
69 102
179 183
287 287
384 364
481 445
587 523
657 612
684 641
712 667
728 675
722 687
694 663
669 641
655 613
606 598
542 546
516 524
513 509
501 509
471 477
457 464
468 457
461 477
435 452
415 438
406 420
388 416
356 384
332 360
319 334
282 328
240 290
220 274
213 255
184 239
146 202
130 185
135 175
118 179
80 144
57 125
61 115
71 132
107 152
184 208
297 290
407 406
501 486
601 571
692 635
744 695
743 715
743 731
756 737
758 755
721 715
699 695
686 668
654 651
607 601
575 568
579 555
569 569
543 543
534 534
532 522
524 525
502 500
489 484
488 468
450 462
401 420
378 401
368 381
338 365
293 321
268 298
269 286
253 291
217 256
192 236
188 222
183 225
180 214
219 239
307 299
408 404
509 488
629 588
752 677
761 757
758 748
757 745
758 754
759 757
755 751
749 746
759 756
757 754
742 730
734 713
748 726
747 728
729 707
733 705
742 710
735 703
723 684
720 677
728 686
695 664
649 623
631 608
625 604
599 580
554 535
522 507
520 511
496 496
457 458
425 430
407 417
385 398
361 371
372 373
435 426
500 492
599 559
712 652
760 755
765 758
763 755
762 750
758 754
765 757
763 761
757 757
760 756
759 758
756 748
755 742
757 754
753 756
750 746
752 748
760 756
749 753
744 733
744 732
757 754
745 755
729 720
724 708
735 710
709 690
687 648
658 618
655 620
614 604
593 564
567 538
547 523
509 500
489 466
471 447
479 457
473 469
533 498
624 572
747 669
764 747
763 750
762 749
758 756
765 758
763 761
761 758
760 757
763 758
759 747
758 744
757 755
751 757
745 745
748 746
760 757
748 752
742 731
744 731
757 755
749 755
741 724
735 712
747 715
724 697
707 657
678 627
669 626
623 607
600 567
578 543
559 526
517 499
498 465
481 447
480 451
429 426
405 389
393 377
391 378
363 359
337 322
315 304
316 313
282 303
263 269
239 247
226 240
206 229
193 205
178 189
167 186
126 169
111 142
101 133
101 131
70 109
50 80
42 72
48 84
22 76
11 47
19 53
103 117
213 213
362 319
541 446
684 594
758 696
762 756
758 761
760 758
763 758
760 749
756 748
758 756
763 762
759 754
758 750
760 757
760 750
758 742
755 739
758 755
750 749
750 749
758 747
759 753
740 733
740 727
755 721
757 727
718 683
704 663
706 648
693 644
658 604
631 575
634 560
620 572
586 541
569 524
560 504
545 503
522 477
512 462
514 445
485 446
442 411
425 398
420 382
394 369
350 329
329 310
333 300
315 308
277 273
251 255
247 240
235 241
213 216
205 205
233 212
291 278
377 344
506 450
651 555
759 661
763 731
763 746
756 750
759 756
763 759
756 754
760 751
761 758
757 747
752 738
756 737
758 756
751 745
752 746
760 744
760 752
747 735
746 732
757 736
757 750
731 716
724 700
738 686
726 677
688 632
661 602
662 584
639 587
595 544
566 517
550 492
530 485
498 452
476 429
466 406
433 403
394 369
379 356
379 341
355 330
320 297
306 282
315 278
306 288
273 258
257 246
261 240
256 246
241 227
242 221
296 273
378 341
479 424
606 526
737 630
761 712
763 744
761 746
758 754
759 756
760 753
754 749
760 756
761 757
752 737
745 728
757 748
758 754
741 732
744 725
752 728
748 723
736 703
739 696
757 705
739 687
703 648
689 634
685 627
656 598
607 549
575 519
568 521
530 503
496 460
459 429
447 420
414 400
397 368
379 347
367 345
321 328
304 296
288 282
279 274
234 243
211 210
192 194
193 203
162 196
136 159
110 137
109 138
94 131
131 140
200 191
321 299
425 406
549 494
661 584
756 666
752 719
750 736
749 737
757 754
747 756
731 721
721 704
714 694
670 662
633 608
604 580
608 589
577 581
569 553
558 541
560 543
542 536
534 512
523 499
517 500
460 474
431 432
404 411
390 400
338 364
299 319
268 293
258 291
210 268
179 224
147 198
136 190
105 171
87 139
62 114
45 106
12 95
7 69
8 57
17 45
5 20
7 4
7 7
22 23
8 27
17 27
86 93
203 200
310 304
430 393
534 487
640 592
686 659
732 686
745 711
748 729
725 722
710 694
690 677
671 670
599 630
563 581
544 563
545 564
520 547
506 520
504 518
524 544
501 543
489 515
468 498
462 495
429 476
407 441
379 415
357 406
304 381
279 344
258 325
243 311
198 278
171 243
175 228
153 233
117 202
87 176
80 158
65 155
46 131
56 133
115 164
196 252
291 330
413 435
545 533
636 622
697 673
743 724
755 739
758 755
746 746
731 735
735 726
710 721
661 675
617 634
602 606
582 613
543 579
538 572
540 561
532 566
519 549
517 544
537 543
513 546
464 506
442 488
432 469
404 455
354 406
316 374
308 353
281 353
238 313
209 288
190 263
163 249
136 220
121 202
115 181
96 186
102 185
173 245
295 331
414 438
522 525
638 619
756 712
758 756
763 762
758 756
760 752
760 757
752 747
748 739
756 735
750 754
719 731
713 725
715 713
704 716
684 694
682 689
702 688
690 701
648 665
632 652
633 642
614 638
571 595
533 561
521 537
490 536
441 491
406 460
376 426
343 409
306 371
282 347
273 325
239 318
198 281
181 267
178 252
159 242
132 212
157 226
251 290
364 400
470 483
587 580
711 673
761 757
763 753
761 751
757 750
758 756
750 752
749 752
759 752
760 757
739 735
738 731
757 754
758 756
733 732
729 728
747 744
746 743
727 719
710 700
709 708
689 699
648 662
624 640
602 623
559 588
517 545
494 521
488 520
446 488
391 441
364 418
355 411
330 387
290 345
261 319
259 326
240 312
206 278
184 257
186 260
222 284
295 333
406 418
544 536
635 629
736 698
759 753
760 756
765 758
760 749
754 743
757 754
758 757
751 752
744 746
755 756
740 753
740 735
740 729
756 745
731 745
729 722
730 718
734 720
699 700
681 668
666 653
667 660
615 637
576 587
548 562
537 554
497 527
467 482
430 448
416 445
371 425
349 387
324 364
304 349
266 326
249 295
233 277
229 279
180 257
161 223
148 209
145 207
116 187
91 150
71 131
74 138
41 128
28 96
8 75
17 64
4 52
7 31
7 15
22 23
4 22
7 7
16 27
90 94
185 185
322 292
482 429
652 583
751 694
763 751
762 757
760 758
763 758
763 753
761 748
758 756
759 757
756 753
756 753
760 757
751 756
747 737
748 737
757 755
748 757
739 741
740 739
755 754
741 749
736 716
725 701
739 716
701 702
682 661
654 633
633 617
592 590
568 553
547 529
534 525
478 497
454 458
433 438
425 429
384 399
352 358
325 335
323 342
287 327
263 289
235 267
227 261
199 244
183 215
182 193
149 190
113 162
99 148
100 135
77 122
45 90
29 74
35 63
22 69
8 37
10 42
77 87
192 194
320 293
471 415
633 535
757 669
763 749
763 761
758 761
760 758
763 755
760 747
755 748
758 756
757 755
749 749
758 747
760 757
752 745
748 735
755 734
758 756
749 745
750 744
758 738
755 743
737 721
736 707
751 691
725 689
675 643
651 619
647 600
625 589
578 542
549 513
548 495
526 498
484 458
450 430
434 406
414 400
382 368
362 347
351 324
323 324
286 290
271 279
268 263
241 250
205 216
189 200
191 189
176 195
139 160
119 146
119 133
112 137
124 137
188 181
309 268
439 399
558 499
686 607
760 696
761 757
762 751
759 748
758 750
759 756
759 753
754 750
760 749
760 757
752 740
745 731
757 734
758 756
744 741
745 739
753 733
751 743
736 723
738 714
756 701
733 701
692 661
674 642
667 621
636 603
584 554
555 526
551 508
523 507
472 460
435 430
422 408
400 400
367 365
343 339
330 338
304 320
269 289
253 274
244 267
216 240
184 208
169 193
171 201
150 183
107 146
87 130
87 131
74 116
46 85
21 61
24 71
42 84
103 128
219 220
367 347
514 470
643 575
751 678
758 754
759 756
761 760
758 758
760 756
761 758
760 750
754 743
757 754
760 757
755 752
752 748
759 756
749 756
747 738
748 736
757 753
741 756
737 737
736 737
752 744
725 723
704 685
688 665
690 670
644 649
615 603
580 573
561 558
522 534
501 496
477 471
460 462
406 437
384 399
367 381
360 374
318 345
292 309
273 292
274 301
234 283
205 242
179 221
174 217
148 202
133 171
106 145
97 145
64 133
54 106
40 91
25 79
5 63
28 68
109 129
252 252
368 367
512 472
654 592
760 715
765 758
763 755
761 750
758 756
764 757
761 761
759 758
760 757
753 758
750 742
752 742
757 755
751 757
745 743
747 745
759 757
751 755
744 733
740 729
757 755
737 755
724 717
704 696
699 691
666 668
647 630
617 601
602 596
550 572
527 532
509 512
494 498
445 466
415 426
396 408
394 412
349 390
324 352
304 336
300 334
273 317
252 281
226 257
222 261
189 249
178 222
162 205
149 194
120 176
107 150
101 142
119 160
138 189
224 246
351 349
507 478
625 582
734 657
755 736
759 756
763 765
763 762
758 756
760 757
756 748
752 742
755 741
757 755
741 741
737 739
756 742
760 757
742 735
737 725
755 727
757 754
741 727
727 709
724 691
709 688
676 653
653 625
638 595
601 590
549 545
525 524
516 500
480 481
431 435
403 409
402 391
378 393
326 347
297 325
291 309
275 306
247 274
223 248
215 229
194 234
158 198
146 188
137 168
113 160
86 130
75 118
85 109
82 125
107 144
203 223
351 332
497 463
619 557
734 652
756 739
759 756
763 763
763 761
760 757
761 758
761 751
759 747
756 747
758 756
748 747
745 746
759 748
760 757
745 738
742 731
756 734
758 756
748 741
740 731
748 723
744 728
723 698
705 672
697 648
666 646
620 604
601 585
594 564
559 546
516 503
494 479
495 463
466 459
408 411
379 388
371 370
353 364
318 327
287 297
277 278
256 281
222 249
202 230
185 205
160 194
131 164
117 148
114 132
87 127
65 107
112 143
223 220
350 331
468 421
598 528
743 657
759 751
763 759
763 759
760 756
761 758
760 749
760 746
757 753
759 756
747 746
745 745
760 756
761 757
743 734
741 729
757 754
759 756
746 737
740 728
751 738
749 731
733 701
715 674
712 674
685 657
644 617
626 598
610 582
575 551
538 512
520 491
525 498
481 476
442 431
417 411
416 411
388 395
368 357
342 334
341 343
307 333
298 305
280 288
268 279
237 263
232 242
252 252
321 312
380 379
487 451
607 548
737 656
764 731
762 745
758 744
758 754
765 757
763 757
758 752
760 756
752 758
749 738
749 735
757 754
738 751
733 729
739 729
756 734
734 716
724 685
721 673
735 686
694 667
661 618
634 595
628 590
598 572
582 537
562 516
569 529
546 530
555 517
564 522
578 534
566 533
571 522
577 525
595 545
552 531
530 496
515 483
513 484
480 463
444 417
409 390
399 391
360 376
363 359
402 387
490 458
575 535
684 607
756 694
758 756
763 758
763 758
762 757
760 757
763 758
760 746
756 742
757 756
758 758
752 751
748 746
760 757
745 754
749 738
750 736
757 755
745 757
744 738
749 742
759 749
737 729
727 697
724 683
733 691
683 665
652 617
632 595
629 592
600 571
576 530
550 506
549 512
511 499
499 468
480 449
466 440
430 419
415 391
427 380
401 385
353 350
332 330
332 318
322 320
307 298
337 316
433 377
542 489
638 567
747 657
759 737
760 757
763 757
763 752
755 751
758 756
763 759
757 756
759 755
760 757
760 750
752 740
756 738
758 756
757 751
752 746
758 742
760 754
747 737
748 733
755 725
757 740
727 710
727 699
737 683
716 669
678 628
661 606
669 592
653 598
598 550
570 526
568 511
559 515
531 484
508 461
505 443
487 454
453 424
439 412
428 392
404 384
376 356
365 344
375 335
351 337
306 300
289 289
295 282
305 299
330 307
403 363
528 451
647 575
735 644
759 718
760 751
761 757
760 750
759 746
756 747
759 756
756 751
754 749
760 750
760 757
751 738
746 731
757 735
758 756
747 741
740 734
751 730
751 742
739 719
738 702
749 684
732 689
695 651
680 633
671 608
634 589
591 546
568 523
570 509
541 507
486 461
459 439
455 423
440 419
405 383
377 356
373 342
354 350
321 320
305 304
283 277
256 266
229 239
218 226
217 234
188 210
145 176
129 163
134 168
139 165
162 173
238 231
366 344
487 446
583 522
672 597
759 674
761 729
754 738
754 739
757 753
758 756
738 738
738 739
757 751
748 731
719 693
713 679
733 695
726 688
687 649
670 634
678 640
668 629
643 600
621 578
620 585
578 570
549 533
528 513
507 497
457 466
427 424
403 402
402 405
348 379
314 333
291 315
288 315
260 298
237 259
208 234
206 243
172 233
164 206
145 187
133 180
105 165
98 143
98 137
89 143
41 129
29 101
21 93
44 107
71 130
155 181
266 270
410 397
507 497
599 557
678 626
756 699
749 741
749 738
748 734
757 754
742 756
736 733
734 719
727 709
692 685
679 655
672 645
685 661
646 648
630 617
627 611
636 619
612 605
589 567
564 546
566 554
522 539
499 498
469 472
445 455
404 431
382 395
359 373
347 370
293 347
273 311
257 297
252 291
212 262
186 227
171 214
175 225
144 214
122 178
95 158
96 159
100 168
159 193
246 259
367 365
464 466
581 545
682 629
759 708
756 751
752 738
751 738
758 756
751 757
740 741
733 734
746 745
726 729
715 694
700 676
706 688
675 680
669 652
662 641
657 638
628 622
616 596
604 583
599 588
541 560
511 518
488 497
478 489
434 458
395 408
387 383
359 387
315 353
291 327
273 302
246 291
216 260
200 244
202 228
173 228
132 192
117 183
122 174
124 184
145 188
219 245
351 335
473 462
573 543
669 625
758 697
760 757
756 750
756 746
755 743
758 756
752 749
750 747
758 747
760 756
739 732
736 725
755 726
757 747
722 713
708 701
720 693
715 699
689 669
665 642
654 617
629 622
583 585
557 563
538 534
500 515
456 474
428 447
421 424
384 417
327 370
304 350
299 334
281 328
243 289
214 263
213 249
200 260
193 248
235 277
322 336
426 432
529 510
634 592
748 670
758 755
755 751
752 752
760 753
760 757
751 744
745 736
756 738
758 756
746 743
738 736
750 731
751 746
736 724
735 713
747 704
734 722
702 694
693 685
691 669
662 657
621 617
600 596
598 580
569 579
510 529
479 505
472 486
447 478
408 437
375 406
367 387
343 392
303 356
282 337
280 323
300 348
355 382
449 452
575 539
664 636
726 686
753 745
760 753
761 758
759 747
752 739
757 754
759 756
747 749
744 744
749 751
747 747
731 724
730 714
741 724
723 715
684 674
680 667
695 676
682 663
641 621
613 598
607 602
582 587
534 546
498 517
478 504
453 482
418 445
394 421
379 416
343 392
301 355
284 340
280 336
248 307
228 282
261 305
358 387
440 466
530 525
623 600
730 688
754 752
758 746
756 742
757 754
754 756
746 748
749 749
759 756
739 751
732 726
733 723
757 744
721 731
698 691
690 681
700 689
678 680
659 643
633 621
628 625
586 614
569 580
539 555
519 541
478 516
456 480
435 459
424 455
364 427
337 385
318 369
317 367
279 341
249 299
226 280
229 291
195 280
174 242
153 222
168 235
204 269
293 318
399 398
529 511
607 599
700 657
749 726
760 757
759 758
750 740
749 737
758 755
758 757
749 746
743 739
755 751
739 749
740 723
729 705
739 719
709 713
705 686
693 671
688 666
654 646
639 615
628 603
631 610
573 583
539 537
516 517
511 513
473 489
436 440
402 411
395 416
355 401
333 364
303 337
286 326
253 307
239 277
225 262
212 259
162 238
145 207
141 201
144 201
107 174
80 139
65 125
68 134
42 126
23 93
9 73
19 72
7 61
7 37
9 15
24 26
7 24
7 9
8 14
19 23
8 17
7 5
28 8
24 25
14 24
55 66
171 155
299 281
427 386
558 494
684 588
757 699
753 745
754 753
758 754
760 757
748 745
746 737
755 739
758 756
747 744
742 739
758 740
760 757
751 742
746 733
755 732
757 756
743 744
744 744
752 736
746 742
727 719
729 707
739 692
712 693
661 650
640 633
640 617
618 609
568 561
539 534
542 520
526 532
482 493
448 466
438 445
422 445
397 416
380 397
373 374
342 377
301 343
287 332
287 317
259 305
221 268
204 253
215 245
203 257
160 219
141 205
146 197
141 203
121 177
101 155
103 143
123 181
177 220
286 308
423 406
545 520
649 601
744 690
758 744
759 756
762 757
756 753
760 752
761 757
760 749
752 739
757 738
758 756
747 747
746 746
756 742
753 753
737 732
742 732
757 734
758 754
730 725
728 724
747 719
729 713
682 667
655 642
657 627
633 633
574 582
535 550
523 525
499 519
466 481
437 453
422 426
392 428
348 391
335 378
329 356
295 344
256 307
240 291
252 311
233 294
185 250
164 234
170 241
170 236
154 214
233 268
401 365
509 259
379 38
181 10
159 34
226 111
320 210
451 337
593 476
683 572
737 630
750 696
760 756
761 758
753 741
746 733
757 753
759 756
737 737
725 719
723 714
713 701
695 673
691 662
697 670
665 660
649 632
648 629
658 637
626 618
600 580
581 561
584 571
542 556
510 511
479 486
472 481
443 464
426 429
399 402
389 403
349 389
335 358
321 343
308 331
263 302
240 268
222 251
222 258
174 235
146 196
127 179
124 178
97 162
75 125
44 98
42 103
37 113
105 145
202 220
320 317
428 415
550 500
656 586
756 676
755 727
747 741
746 745
760 756
750 756
741 730
735 718
749 732
719 719
703 680
683 659
683 659
665 651
664 630
658 620
658 628
617 616
602 586
591 572
581 563
529 527
493 483
463 457
450 453
396 423
353 370
311 336
299 327
270 310
254 279
231 256
225 260
196 253
191 231
184 222
175 214
146 197
135 174
128 167
133 176
94 158
73 128
61 117
64 120
58 113
91 122
168 182
301 299
417 413
557 511
674 607
760 704
761 758
760 748
761 749
758 755
758 758
751 749
751 748
760 757
748 751
739 725
738 722
757 744
742 741
739 713
738 710
746 719
732 711
729 688
735 671
707 673
661 642
642 620
639 603
609 587
561 541
533 514
531 495
511 498
461 454
423 423
408 400
386 393
355 360
328 333
312 306
282 304
242 269
223 253
206 227
168 206
128 167
104 145
101 127
70 120
21 74
7 56
18 48
47 81
116 128
223 213
371 324
512 466
627 563
740 657
758 731
760 757
761 751
758 746
756 747
758 755
753 751
748 746
758 746
760 757
746 735
740 724
755 726
757 753
743 731
736 720
742 712
741 719
728 695
719 678
714 656
686 655
643 616
624 599
616 578
583 560
537 518
513 494
513 480
488 480
430 430
392 399
379 377
356 368
327 334
296 304
279 278
253 276
218 246
203 231
190 210
168 201
149 180
158 182
215 213
287 286
373 356
500 460
641 565
756 671
763 729
762 745
757 748
759 756
762 758
758 755
759 750
760 757
747 740
748 737
757 738
758 754
739 734
741 737
759 743
760 751
742 726
739 721
756 724
758 737
729 700
707 677
702 659
681 651
649 615
621 587
608 582
579 563
540 529
526 514
518 504
489 478
457 445
439 426
441 431
412 408
365 368
345 352
343 351
329 337
299 304
272 280
284 297
321 329
386 378
493 460
613 557
718 642
758 711
762 746
757 754
759 756
761 757
757 754
760 756
761 758
757 745
751 737
757 754
755 756
751 747
749 744
759 752
746 751
745 735
748 734
757 749
739 744
732 716
733 708
738 702
701 672
674 632
655 612
652 614
606 591
570 541
537 512
524 502
489 480
465 442
430 410
412 403
366 384
345 351
326 332
309 317
270 291
254 262
242 251
250 259
212 244
196 215
202 218
258 263
333 328
440 395
556 487
691 606
757 702
763 753
762 760
760 757
765 758
760 748
760 746
758 756
762 757
751 749
755 753
760 757
753 756
747 735
748 734
757 755
753 757
748 743
745 738
758 750
743 745
741 717
735 696
736 699
699 681
678 644
658 620
639 602
594 570
566 532
543 511
534 509
480 481
445 437
417 412
396 389
365 364
344 326
312 295
294 287
249 266
223 230
198 206
169 184
125 153
98 120
78 102
67 100
20 74
6 40
7 27
21 38
56 70
136 123
244 215
389 344
503 459
624 544
717 621
760 695