480 497
469 487
472 482
509 508
514 509
510 513
512 514
508 514
507 512
512 513
495 504
496 493
495 495
492 499
480 497
469 487
472 482
774 775
713 768
534 587
385 406
243 255
146 140
101 62
139 91
174 112
209 131
243 147
284 182
310 207
342 229
368 247
404 271
424 287
438 294
454 304
458 315
460 323
469 331
468 333
468 329
453 325
452 318
459 325
452 333
443 335
434 331
429 331
444 339
427 336
427 331
415 328
397 318
393 322
381 321
381 319
375 319
356 311
361 307
349 308
343 311
328 311
321 309
351 324
365 343
374 345
398 356
422 375
467 408
490 435
522 454
554 473
582 492
609 505
627 514
643 525
659 543
654 545
661 538
666 543
673 549
664 542
653 528
656 529
653 538
636 536
630 529
622 523
627 525
618 524
607 512
592 498
576 496
565 492
561 490
552 486
551 485
528 471
518 457
515 457
500 458
487 454
470 442
462 435
458 429
442 422
446 420
450 428
465 444
491 464
514 485
557 505
588 528
611 536
654 561
682 582
700 595
711 605
729 615
766 629
771 645
766 638
765 634
760 631
767 640
754 637
752 633
756 631
746 627
731 604
720 598
716 595
703 594
679 580
681 577
675 574
666 571
646 551
628 537
627 534
613 538
594 528
572 510
564 500
563 499
547 490
532 479
526 475
507 472
500 465
501 471
512 477
527 489
538 492
567 508
601 531
630 559
654 575
679 591
733 618
761 639
770 651
773 653
771 671
769 676
767 681
763 687
769 687
770 676
760 658
768 656
766 653
765 654
747 641
740 632
753 631
740 629
724 610
712 600
700 591
693 593
659 572
649 563
642 554
624 545
614 530
597 522
588 518
568 514
541 499
542 496
535 495
523 489
494 461
474 447
474 449
459 452
448 446
448 447
459 452
485 470
501 481
528 498
562 524
588 550
620 569
644 585
683 607
708 626
719 626
743 637
762 654
764 665
758 663
753 661
768 661
767 666
754 654
747 647
729 632
720 631
712 627
701 623
706 624
692 614
677 594
675 592
663 593
649 588
627 576
619 569
625 572
598 553
584 536
569 526
559 523
552 524
535 518
527 509
520 506
505 494
507 490
498 489
495 493
493 499
480 482
516 503
543 531
575 550
603 562
637 581
685 616
713 646
740 661
764 679
771 704
776 718
775 719
772 716
772 726
763 727
763 726
764 727
771 731
772 723
764 702
768 698
773 704
762 703
757 690
743 669
758 670
746 665
735 647
725 638
713 635
698 628
686 620
673 612
671 609
645 594
636 575
625 571
603 558
582 551
560 537
556 528
556 531
534 521
524 504
508 494
501 493
494 496
488 497
505 508
524 523
534 525
572 540
602 564
642 599
667 623
701 643
747 670
771 700
777 715
774 718
773 729
772 753
770 759
764 747
768 743
771 746
774 740
769 724
771 719
772 718
759 708
761 700
764 696
771 700
763 685
755 663
750 647
743 647
735 650
711 626
699 613
704 613
687 601
673 581
657 571
639 566
619 559
614 551
595 537
590 534
566 519
555 500
551 497
540 498
520 491
501 479
495 471
500 471
489 466
496 465
503 473
513 481
545 505
579 531
623 559
664 591
692 609
738 628
769 654
772 682
769 697
763 706
772 721
772 736
772 722
771 709
772 703
770 708
763 701
761 695
768 687
767 682
763 664
764 654
762 648
752 648
728 631
715 613
715 606
704 602
680 581
662 563
656 554
643 552
619 539
600 527
588 514
581 511
566 494
549 484
528 465
505 457
488 446
480 442
475 436
460 431
437 410
426 399
424 398
408 399
390 392
373 384
369 375
357 365
341 350
330 343
317 336
301 333
295 329
284 326
286 323
280 324
288 323
323 347
370 387
393 405
432 436
487 477
557 515
606 551
642 571
677 593
714 617
753 648
763 666
766 682
769 694
772 700
767 681
768 675
771 675
766 675
749 664
756 661
768 661
765 662
750 643
739 631
744 632
735 633
713 621
688 601
682 591
676 585
657 567
643 557
629 551
605 543
590 533
583 528
579 523
563 517
542 497
531 486
520 475
502 473
480 462
464 452
467 447
461 446
445 433
433 425
421 420
410 418
406 417
397 413
393 408
370 391
360 375
360 372
353 373
340 374
323 366
320 360
331 363
323 363
314 352
307 349
302 347
301 350
281 337
274 334
269 333
266 326
275 326
286 337
310 362
335 387
371 415
429 451
487 497
529 525
551 529
582 546
619 573
637 593
649 603
659 610
673 617
683 618
678 610
672 605
664 605
649 601
641 591
629 581
634 586
628 584
617 570
620 569
616 568
601 568
590 562
571 546
579 547
569 545
552 524
536 513
514 501
497 492
490 487
475 477
467 472
446 461
435 439
436 441
419 435
400 431
384 422
382 417
384 419
358 400
350 388
334 375
326 374
318 373
305 367
295 359
288 356
274 344
276 334
268 332
257 332
236 324
220 306
230 310
237 321
248 330
272 341
309 367
364 409
407 448
452 482
499 513
551 546
589 568
612 572
639 590
660 611
670 622
691 632
703 640
716 651
707 643
699 626
703 624
699 629
685 627
670 616
652 598
664 601
649 594
639 578
626 572
613 569
601 564
588 556
580 550
572 547
550 531
545 516
533 511
510 500
489 497
464 477
459 466
452 466
433 454
415 438
392 425
384 422
368 417
352 409
341 404
329 397
310 376
302 365
289 361
275 360
251 352
244 345
242 343
231 341
216 330
199 316
195 315
198 327
199 338
207 345
237 367
283 399
332 431
376 460
426 499
462 532
497 560
545 588
584 614
622 642
638 650
660 654
680 660
695 676
694 679
691 677
700 674
710 681
698 669
693 661
686 656
678 656
675 653
668 651
661 638
651 637
635 619
636 610
629 607
614 605
589 591
571 578
575 570
562 566
539 544
521 529
501 515
480 500
459 490
440 479
430 467
409 456
398 438
387 430
375 424
356 421
331 407
326 400
325 398
309 394
282 366
272 360
289 372
315 399
342 425
382 457
434 490
489 529
536 554
587 591
620 610
651 639
682 660
708 672
741 692
763 708
764 703
765 707
771 717
771 727
762 721
755 712
764 706
772 708
753 689
743 677
724 659
712 657
705 650
693 645
692 639
677 633
658 611
653 603
641 598
620 594
593 578
575 564
576 556
547 540
522 517
499 500
482 490
471 486
444 472
425 460
413 449
395 437
385 420
374 414
362 410
332 394
309 381
308 378
302 374
288 367
270 350
260 343
277 356
298 382
326 406
365 436
417 471
474 509
507 523
547 550
584 579
611 604
640 621
670 640
703 658
717 669
718 660
733 663
744 670
739 676
723 666
703 647
712 648
707 644
691 628
681 619
671 617
661 613
652 608
642 603
639 602
621 588
610 570
604 562
582 550
559 541
531 524
519 512
523 514
501 499
476 473
454 457
440 452
425 446
403 434
388 422
375 414
349 388
341 373
326 365
314 363
289 352
274 339
273 335
264 334
247 323
236 308
237 309
261 331
275 347
312 376
357 411
414 452
470 490
522 519
568 550
609 584
637 610
676 633
710 657
749 684
761 694
759 680
768 690
771 706
765 712
760 706
755 700
770 704
766 699
762 684
754 676
745 675
740 675
733 669
718 654
714 653
692 641
686 624
679 618
667 619
642 609
618 592
609 581
605 579
579 564
561 543
537 526
514 509
496 502
474 490
458 479
442 469
425 454
414 436
395 426
377 421
350 410
337 399
342 401
325 389
302 371
280 348
265 336
256 333
232 324
217 313
205 305
206 304
228 317
256 337
301 373
345 412
390 450
444 483
510 533
559 566
594 590
637 613
677 632
713 666
731 686
746 695
762 705
771 725
769 723
768 705
765 699
759 701
755 699
753 694
751 688
750 687
732 672
733 658
727 655
718 657
696 650
677 635
669 618
664 617
642 602
623 582
602 569
592 565
572 556
552 544
537 531
518 522
500 504
489 490
469 481
438 462
406 442
394 431
390 423
372 416
348 394
325 377
314 366
302 364
278 353
258 344
249 335
234 324
215 298
198 288
185 280
160 273
142 260
140 258
139 257
145 266
163 274
203 302
267 349
319 397
368 436
411 467
475 504
535 547
572 569
609 591
641 613
667 637
693 653
711 668
737 679
748 691
743 679
745 665
746 667
740 671
720 661
710 653
722 651
715 652
698 636
695 634
676 616
668 616
655 613
638 603
619 580
599 569
586 551
570 539
555 532
530 525
500 507
490 496
483 488
464 479
437 456
418 442
407 432
381 419
357 408
339 397
326 385
316 377
303 364
286 353
271 347
248 339
234 328
225 323
219 319
201 310
169 278
155 265
148 264
134 264
128 264
138 275
176 300
230 337
278 369
332 407
383 447
434 490
482 523
513 542
556 567
582 586
601 589
629 601
645 615
648 626
639 620
640 618
658 620
654 624
643 608
634 601
623 589
624 594
613 591
609 590
610 587
600 583
597 570
588 563
580 561
559 555
539 542
535 534
521 523
504 511
480 488
461 472
455 469
435 462
413 449
395 438
384 431
379 420
366 406
355 399
338 395
307 374
297 365
295 366
286 360
268 345
255 331
271 341
300 367
328 395
365 425
412 460
481 507
533 543
566 555
606 582
643 612
676 638
709 659
737 679
768 700
767 706
767 701
772 707
772 718
766 721
756 710
753 698
771 704
763 698
759 681
752 672
754 674
749 674
737 666
730 660
727 658
716 649
710 632
695 623
673 611
646 600
629 585
625 578
616 576
595 563
574 540
557 526
553 526
530 519
514 510
497 498
489 492
470 472
455 455
439 446
423 441
398 429
393 422
385 419
388 424
390 428
411 435
456 466
498 504
524 527
560 554
604 584
665 621
701 647
736 663
767 685
771 712
768 733
767 748
770 761
772 773
773 768
771 748
773 750
772 759
767 754
759 743
766 740
772 745
771 735
771 716
766 706
768 707
767 714
757 693
745 672
745 669
735 654
731 634
716 622
703 618
675 606
663 594
658 587
649 584
625 567
607 547
595 536
577 525
553 517
533 506
518 494
512 488
498 476
481 461
463 451
441 443
419 432
414 426
401 418
390 411
360 386
343 366
337 362
323 363
304 355
289 347
296 350
327 372
352 393
392 419
438 456
485 495
525 519
570 554
620 584
659 616
686 628
730 649
769 677
772 710
768 714
759 718
769 729
772 738
772 728
768 708
766 701
769 708
762 705
760 702
769 701
766 697
763 682
765 674
766 671
754 670
736 658
733 650
726 634
716 631
693 610
675 592
671 586
658 585
634 572
617 563
608 551
601 547
586 530
571 522
559 515
528 498
511 485
501 479
497 473
481 467
461 446
451 434
443 427
425 425
407 419
388 408
388 399
382 395
354 369
338 357
324 350
315 352
320 357
334 374
370 397
403 425
443 447
497 481
548 522
588 559
615 581
645 596
701 625
734 654
755 663
770 674
772 689
773 709
765 715
765 718
770 720
772 722
770 709
767 692
772 692
766 692
750 681
758 679
769 676
765 674
748 653
737 639
740 636
726 637
708 627
690 614
674 593
669 585
649 566
633 555
617 547
592 538
578 527
567 521
562 515
543 506
519 483
512 475
505 471
475 456
450 441
431 428
433 420
423 414
404 397
386 384
369 375
355 369
341 361
327 354
320 354
301 337
280 310
272 303
260 303
241 297
219 286
210 280
213 283
202 275
189 261
173 250
166 252
161 251
147 245
133 237
119 230
115 221
135 228
160 250
195 288
232 321
282 358
351 403
414 452
471 490
513 513
555 538
597 563
625 592
652 611
678 627
711 647
734 658
745 657
753 661
758 669
749 668
755 669
755 671
755 666
740 656
733 640
739 638
736 643
722 643
705 633
694 624
705 624
689 615
676 596
662 587
645 580
622 564
608 555
595 547
588 541
564 525
558 507
546 500
534 500
509 492
488 477
485 470
485 471
465 461
440 431
422 419
416 417
402 414
386 406
374 399
364 395
352 382
348 370
334 364
321 361
299 355
289 345
277 331
269 328
252 317
239 300
234 295
244 308
251 323
275 344
310 370
365 407
420 445
470 475
518 511
550 536
585 564
631 592
668 618
708 647
725 658
748 661
770 678
772 707
765 703
760 701
761 700
770 697
761 691
760 675
755 668
752 668
748 667
739 661
737 657
734 655
714 640
714 625
705 621
693 620
658 599
638 584
639 577
632 575
611 562
594 542
577 530
570 529
551 524
534 514
522 505
515 503
503 488
483 465
470 458
453 455
429 445
424 436
419 432
410 429
391 416
375 399
370 394
363 396
348 390
332 383
316 365
311 362
304 351
292 343
283 338
264 333
252 324
251 327
260 332
270 345
288 354
332 382
385 420
420 453
461 487
504 521
561 551
612 588
642 605
674 622
703 640
725 663
745 677
757 691
769 698
772 703
755 681
764 679
768 680
762 685
746 677
740 671
756 672
753 676
738 661
727 650
725 648
724 651
695 631
681 623
675 613
663 607
653 592
638 578
622 568
600 562
578 549
570 544
560 534
549 531
526 509
499 482
495 477
479 476
458 466
441 456
436 450
432 444
416 427
405 419
390 412
371 405
363 400
352 395
349 389
328 373
316 360
309 351
303 349
289 350
264 333
249 325
253 319
247 318
237 308
241 312
252 325
277 344
319 379
368 419
430 462
485 505
542 536
599 573
651 612
690 649
719 672
759 702
771 731
772 757
774 749
773 755
772 760
772 769
767 765
766 766
772 766
773 766
773 753
772 747
772 747
769 742
756 727
760 712
770 707
769 700
754 674
747 659
750 656
734 651
712 636
694 623
691 616
687 608
664 588
640 565
623 559
602 548
590 539
576 533
570 532
553 518
535 499
530 489
526 494
501 482
479 472
460 458
459 451
440 435
427 422
403 403
387 399
376 395
357 387
345 380
337 377
319 361
312 347
304 341
290 339
258 320
239 307
237 300
233 300
216 288
204 273
187 263
180 261
171 261
167 262
179 273
210 302
252 330
303 354
358 397
418 448
465 491
521 529
580 568
635 608
670 633
702 644
739 664
772 696
769 716
765 723
762 718
771 728
772 729
769 716
770 710
769 712
758 706
758 699
760 694
768 694
755 684
747 664
739 647
731 649
711 642
690 627
681 616
687 616
665 605
648 585
629 572
613 566
599 559
581 551
568 543
547 528
522 512
518 496
504 490
491 490
465 481
443 466
441 458
434 456
414 443
397 423
380 412
373 409
345 393
328 383
313 372
301 362
292 349
282 336
271 332
256 328
228 313
224 306
225 305
220 300
202 288
179 262
175 259
172 263
158 260
145 254
134 245
137 243
137 242
141 243
156 258
183 285
231 325
284 364
333 398
393 445
440 479
497 507
551 543
591 580
615 604
637 619
670 635
703 656
709 662
715 655
714 653
707 648
704 649
698 646
700 643
698 644
691 633
694 625
689 624
684 628
664 618
658 613
668 610
649 601
631 584
615 569
605 561
599 562
576 551
560 542
551 531
538 524
528 507
512 497
504 491
483 485
452 460
445 453
440 447
427 443
407 423
393 409
391 406
376 405
357 396
339 387
332 377
331 376
316 360
294 341
279 332
260 328
250 320
240 318
236 311
223 305
213 292
230 301
262 329
299 368
343 405
395 446
465 484
526 532
577 564
629 598
680 636
728 670
763 699
765 720
770 741
772 763
773 760
773 759
771 764
772 765
763 758
761 757
770 759
773 763
772 743
769 731
770 727
772 730
762 720
760 715
764 704
765 697
749 667
741 656
730 645
708 637
688 621
680 612
672 602
657 594
629 569
614 553
610 550
588 545
554 521
532 508
529 498
521 494
499 476
483 465
464 456
444 447
430 437
414 430
406 422
389 414
368 393
353 372
338 368
319 363
294 350
276 339
278 335
265 330
249 314
233 301
218 295
210 293
197 290
184 282
163 265
149 254
149 244
153 248
171 270
201 301
244 338
314 385
386 441
450 487
504 521
557 556
617 598
652 625
682 648
715 671
752 694
773 712
773 713
772 719
772 730
767 731
761 729
763 731
771 735
773 728
754 698
759 690
768 697
764 702
756 697
736 678
760 690
737 666
727 656
708 637
700 638
680 629
656 605
647 604
634 590
612 578
601 557
589 544
577 546
549 534
524 518
514 507
518 508
497 499
483 480
454 455
440 449
428 446
410 437
398 429
386 422
369 408
368 395
353 388
340 387
316 377
304 368
305 362
286 351
267 339
254 321
249 317
268 335
287 359
322 389
368 425
428 470
494 513
550 546
606 586
652 624
674 643
721 670
762 699
772 730
776 745
771 745
773 754
772 768
771 770
766 766
764 762
772 769
774 763
770 738
770 731
765 730
760 727
759 719
763 715
771 713
757 697
758 678
756 671
749 673
725 663
705 646
693 626
694 624
671 610
656 591
637 575
627 570
611 565
594 554
583 546
571 537
563 530
549 508
523 486
513 492
481 476
471 466
464 456
455 454
433 437
414 416
403 407
397 408
376 403
361 395
346 384
330 368
322 356
308 345
293 338
274 334
263 330
279 338
302 359
342 392
380 420
431 450
498 497
551 545
583 571
621 600
665 628
721 663
748 683
770 696
774 711
771 728
766 737
764 745
769 748
771 755
765 735
764 714
771 712
769 715
756 703
744 693
761 688
762 691
745 673
731 659
715 647
712 648
697 638
678 628
660 606
643 595
629 574
618 562
605 554
586 549
556 532
543 521
543 515
528 511
506 492
484 474
475 464
455 451
432 440
415 432
406 420
397 414
390 400
378 393
367 388
348 384
332 374
337 379
330 371
310 357
292 338
291 337
292 334
282 340
261 327
250 324
239 305
244 307
232 294
220 286
211 284
195 280
186 266
180 269
183 267
186 275
210 288
263 322
320 370
377 424
432 470
493 517
577 564
636 613
680 638
712 652
752 679
772 712
767 733
767 755
770 768
772 772
774 763
774 760
773 765
772 771
761 762
764 761
771 755
772 755
770 735
764 721
771 720
769 719
759 704
753 691
754 677
754 669
739 649
723 634
709 623
675 603
659 590
648 582
643 575
625 566
600 541
592 531
583 527
562 525
537 511
518 500
519 492
498 477
476 459
456 444
437 435
423 428
407 420
392 413
384 409
365 393
351 373
340 364
327 364
304 354
268 329
257 318
258 318
241 305
225 287
205 271
193 267
186 265
169 258
151 245
138 239
134 231
135 224
135 223
163 254
201 289
254 331
327 381
397 436
458 480
510 510
560 541
617 582
648 614
680 636
708 656
732 664
756 677
766 678
769 684
770 690
755 689
757 686
758 684
766 687
751 677
743 661
745 655
740 659
714 646
695 635
683 626
693 628
675 619
661 599
645 586
627 580
612 573
595 562
583 556
573 548
547 530
530 500
515 491
502 489
480 481
462 467
453 456
444 453
424 439
409 420
392 406
382 406
360 398
333 377
319 366
307 357
291 344
281 329
265 322
250 318
227 308
221 301
216 298
211 296
198 288
185 270
172 254
167 256
150 253
138 248
131 244
145 251
168 268
203 293
251 330
301 375
358 421
423 469
478 508
523 536
555 556
592 569
633 595
656 617
663 627
671 632
684 634
707 647
697 641
693 627
688 623
684 626
671 615
668 619
664 612
670 620
652 606
657 596
645 588
637 589
615 581
602 571
606 570
597 566
576 551
550 522
535 510
528 509
506 502
488 492
471 481
458 472
445 455
428 438
412 429
395 425
368 411
360 401
341 384
330 377
309 360
293 341
287 335
275 335
254 324
235 315
225 303
222 300
222 297
237 309
260 325
299 364
357 407
421 458
495 509
558 557
606 586
667 620
724 659
764 697
769 721
765 743
770 764
772 772
774 766
774 760
770 758
772 764
767 763
764 761
770 759
773 757
769 740
773 732
771 731
772 731
752 706
750 696
768 690
765 687
749 664
734 647
726 634
717 633
692 618
674 606
665 593
658 590
636 563
608 540
596 533
572 524
545 507
538 501
531 495
516 490
491 468
475 453
472 449
455 449
432 436
411 424
394 403
388 398
374 386
367 381
373 390
392 414
433 445
477 485
536 527
584 567
629 591
686 624
724 650
759 686
764 707
762 726
772 748
772 770
774 763
774 761
772 761
773 767
767 763
765 761
771 755
767 737
765 716
768 707
771 702
766 699
746 681
751 671
758 666
748 659
726 635
709 618
707 613
693 610
659 585
640 572
629 559
619 551
602 532
583 518
568 510
542 500
524 486
513 479
504 471
489 464
462 438
440 413
433 409
412 406
389 395
369 384
368 379
362 371
344 355
330 345
313 341
300 336
290 330
277 325
262 313
245 297
234 281
230 275
218 276
202 273
183 263
172 251
175 254
167 247
155 233
137 220
124 218
111 206
100 206
109 217
136 243
180 273
249 315
314 365
382 425
438 475
494 517
565 563
624 608
654 627
691 642
725 662
769 694
770 722
765 733
766 741
772 751
773 754
772 743
772 741
773 746
760 739
756 722
761 719
771 722
764 711
755 688
759 682
759 685
733 685
721 669
709 655
716 651
701 642
685 621
660 597
642 589
627 582
613 572
600 563
592 559
567 543
560 523
551 516
538 514
514 506
493 493
487 484
478 473
455 459
440 439
422 426
414 423
401 420
385 411
374 405
363 398
350 384
349 375
336 369
322 367
288 347
275 336
274 332
266 330
256 322
256 318
276 334
320 373
357 413
402 449
452 488
510 528
551 548
594 576
627 597
653 621
670 638
704 656
724 668
744 683
739 679
739 667
750 669
749 678
734 675
710 655
705 648
719 653
705 645
697 630
688 624
678 622
671 620
657 613
650 607
643 602
622 585
617 567
596 550
581 547
555 536
536 523
538 516
531 513
514 500
498 483
483 473
478 472
462 467
449 461
439 453
420 437
412 424
405 415
394 411
382 410
360 400
356 395
358 392
347 390
323 372
312 358
312 353
302 352
274 331
258 323
251 314
246 310
240 298
231 292
222 287
207 286
198 288
228 310
270 340
314 377
359 404
411 433
479 482
530 531
571 565
608 594
662 623
708 656
731 670
758 684
771 709
770 725
767 740
761 730
770 731
771 726
760 711
768 707
769 703
764 701
747 688
743 680
768 687
752 678
737 661
724 646
707 627
705 627
680 615
664 605
656 595
641 587
627 569
613 557
600 549
577 542
552 526
549 522
541 515
517 497
492 474
475 458
470 452
452 450
428 437
407 425
397 412
393 405
374 388
358 376
343 370
318 362
297 342
282 335
275 328
257 319
237 298
231 289
222 286
204 284
183 273
165 262
168 259
160 254
143 240
120 219
104 213
107 219
122 236
153 265
201 302
250 340
311 375
370 416
422 459
467 502
495 525
536 549
573 566
599 589
616 593
630 601
654 615
668 632
665 634
666 636
673 635
672 633
673 623
665 618
652 608
635 606
625 598
628 597
630 600
622 594
604 575
595 564
597 568
581 566
561 555
548 547
546 542
532 523
512 504
498 494
484 490
470 484
463 477
448 469
447 470
434 462
418 443
419 435
415 441
402 438
374 418
363 410
373 414
363 407
352 394
339 385
327 381
321 382
307 373
295 367
285 363
268 350
266 334
252 320
254 333
261 350
282 368
331 401
382 441
419 470
457 489
489 511
519 543
556 572
577 586
597 599
611 603
628 611
642 609
648 613
651 620
637 618
639 613
641 613
646 617
631 609
615 593
622 589
623 594
601 583
588 574
578 567
585 568
577 560
566 545
554 536
539 532
523 525
517 518
509 515
504 513
475 487
468 470
466 465
457 467
440 463
424 453
422 446
429 450
416 442
407 428
393 420
388 421
380 420
358 405
354 401
347 396
333 384
334 374
324 370
315 373
298 369
285 357
295 359
305 372
326 394
354 411
375 418
425 458
466 501
500 525
534 546
577 575
609 592
635 603
660 620
681 642
690 655
716 668
732 679
739 682
733 677
732 664
741 666
741 675
727 674
711 668
710 662
723 665
710 657
704 644
693 637
679 633
659 617
649 611
642 605
635 602
613 584
608 569
599 564
585 564
560 554
540 540
544 534
539 533
511 509
496 491
479 481
473 480
459 472
442 465
437 457
420 449
410 432
405 423
394 417
380 418
355 404
338 387
342 384
330 382
316 366
300 354
296 348
292 351
273 345
257 340
250 332
251 331
263 332
275 344
294 356
320 387
359 417
413 458
465 495
508 531
537 546
575 565
620 593
644 623
661 639
679 654
712 666
733 676
735 676
741 676
741 675
737 677
737 675
726 675
738 679
718 667
702 647
711 645
702 643
685 641
651 617
637 605
648 602
637 601
615 580
596 561
584 550
577 549
552 538
536 530
528 521
511 511
504 492
480 472
468 467
446 461
422 447
421 443
417 439
404 435
385 416
370 402
371 401
358 404
338 396
313 377
305 367
307 363
294 350
282 343
270 338
252 334
248 327
243 326
241 322
230 315
216 301
217 297
202 282
191 282
184 281
191 289
230 316
270 349
299 365
337 390
381 426
414 452
453 486
477 503
513 525
524 529
543 531
565 542
581 556
587 568
582 566
592 570
609 576
609 579
603 567
599 560
606 567
606 573
587 560
583 559
586 562
585 557
581 546
575 542
564 545
551 541
538 531
538 528
538 532
525 519
505 497
485 475
481 477
467 475
448 463
430 451
430 449
428 445
413 433
399 422
387 420
376 416
369 410
350 396
348 396
335 385
323 368
323 364
314 365
300 363
283 351
276 346
289 355
293 362
316 371
339 389
363 410
402 444
439 475
477 504
517 534
542 550
580 562
607 581
633 606
644 622
657 630
686 645
708 661
701 653
700 642
699 638
707 646
697 648
688 642
683 637
684 636
678 628
671 615
662 609
650 612
629 604
612 586
605 583
604 582
583 569
568 549
562 541
554 543
527 537
510 527
463 524
492 525
480 514
468 496
443 475
431 469
417 463
411 454
404 448
399 443
381 428
378 411
374 406
364 406
348 402
332 391
330 384
323 374
306 364
294 350
280 343
268 344
264 343
252 336
246 331
248 335
258 337
289 351
316 374
343 400
371 431
410 456
454 482
496 515
522 534
543 539
569 556
604 583
615 599
627 609
642 621
664 633
665 628
664 619
665 620
662 624
651 620
654 619
653 620
657 624
636 613
636 599
641 597
638 604
621 599
596 578
588 571
598 572
584 561
575 546
563 538
553 536
543 532
532 525
528 520
520 517
506 503
503 491
487 476
476 476
453 465
437 456
443 451
435 452
420 436
405 425
395 418
388 419
376 415
362 409
357 401
333 384
325 368
318 362
308 358
292 356
271 344
267 339
269 336
259 335
244 319
234 311
232 307
225 309
203 295
199 297
213 305
238 325
269 340
304 368
343 396
375 428
410 453
447 482
490 509
519 532
527 527
553 537
583 557
597 577
602 583
607 590
637 603
640 602
632 592
634 590
631 586
629 590
624 587
608 578
612 575
603 574
595 558
595 555
589 554
576 553
555 542
549 538
557 534
544 532
530 517
515 504
497 487
490 487
472 479
459 473
453 465
441 458
434 444
423 437
414 433
396 430
378 419
380 419
376 416
355 401
339 383
327 373
328 375
316 374
300 367
287 360
281 353
281 349
270 337
263 332
251 327
235 323
221 309
215 307
212 304
203 299
192 285
191 280
187 283
176 283
160 276
151 269
159 269
156 268
144 251
149 257
164 273
195 301
228 329
266 360
310 390
344 417
384 435
420 460
449 485
471 508
483 518
501 522
531 542
544 552
549 547
554 547
568 557
574 565
569 564
569 566
575 570
577 566
580 559
576 556
572 556
554 547
545 539
550 543
553 547
544 537
526 518
519 512
521 518
508 517
489 507
478 501
483 500
471 483
457 469
447 461
438 461
422 455
418 448
410 445
408 445
390 432
386 419
386 416
377 417
360 414
341 398
331 386
340 390
329 386
321 372
310 364
305 365
301 365
292 361
287 357
284 359
270 347
272 337
262 327
266 339
270 353
294 370
337 398
382 433
417 460
454 477
489 500
534 533
561 561
585 578
600 585
631 605
657 619
676 623
693 633
701 646
697 650
709 652
718 655
729 662
719 656
716 642
720 641
712 637
697 636
685 628
678 621
688 623
674 615
662 598
647 588
633 584
618 576
606 567
598 563
590 558
557 533
550 516
544 512
535 514
512 505
494 493
492 485
491 487
474 477
465 464
444 447
438 449
428 447
405 428
395 418
384 413
372 402
368 390
355 385
342 383
318 374
309 366
308 361
302 362
286 350
273 336
254 317
250 320
235 318
223 311
213 303
209 300
215 299
224 305
245 325
272 353
307 386
359 421
407 456
449 484
483 507
523 524
568 552
603 585
623 605
644 619
676 633
715 656
725 663
740 664
746 667
742 664
744 664
741 665
749 665
745 666
731 649
734 641
730 640
720 643
699 631
684 623
695 623
687 624
658 595
642 579
630 570
623 570
602 561
586 553
577 544
564 536
553 519
540 511
529 505
514 504
489 489
474 473
471 467
458 462
438 443
423 430
419 425
408 426
389 416
373 408
365 399
361 394
352 384
338 375
317 358
294 351
283 342
277 342
277 338
259 329
241 311
238 307
236 307
220 305
205 297
191 291
194 285
180 274
167 260
157 253
148 249
153 259
175 278
206 307
252 340
294 374
344 401
403 441
452 479
485 508
512 529
549 552
599 579
628 604
648 609
665 618
688 633
706 651
707 654
710 657
722 659
728 661
715 642
708 638
706 638
693 638
685 633
686 635
688 632
681 628
662 608
658 599
657 600
641 600
620 586
596 566
600 560
594 559
572 541
558 530
544 522
534 518
522 510
509 503
507 498
492 490
476 473
470 463
451 450
436 448
415 436
403 429
407 426
393 423
379 406
363 395
354 391
351 394
332 387
323 383
318 377
293 353
290 339
285 336
289 346
296 358
316 374
360 403
411 442
457 473
499 497
545 527
602 571
634 597
654 608
688 631
728 658
759 675
770 681
772 694
771 710
769 715
761 715
765 719
771 728
774 720
757 689
761 683
768 687
759 685
748 674
739 664
748 663
738 655
724 636
711 624
697 620
683 614
670 603
646 586
640 581
617 565
607 545
597 535
583 532
559 525
536 511
528 502
530 501
510 491
498 475
479 463
459 449
445 444
428 435
417 428
406 422
389 409
386 397
373 391
361 390
337 381
324 370
327 368
320 367
294 347
280 329
269 321
267 323
249 320
237 313
225 305
224 305
236 312
258 325
291 353
327 387
366 421
414 449
466 489
523 529
559 554
597 569
644 597
681 630
703 652
722 666
746 678
771 702
772 706
770 698
765 687
762 691
759 693
756 687
757 684
761 686
747 676
748 661
748 662
736 660
717 654
693 636
687 621
686 622
665 607
647 587
630 576
623 575
604 568
587 557
574 546
563 540
550 527
544 516
530 507
506 495
483 484
476 476
472 471
466 469
447 457
433 439
428 433
425 436
408 432
395 425
389 420
389 417
372 399
363 386
354 382
343 382
342 386
358 398
382 417
415 443
443 464
488 488
537 522
578 561
604 584
623 596
667 616
704 641
716 648
734 655
745 661
753 672
754 673
750 672
756 669
751 670
737 651
737 643
722 631
711 632
689 621
680 614
690 613
681 614
662 597
647 582
637 573
630 574
610 566
594 557
576 537
563 530
552 514
539 503
527 497
508 493
487 481
482 476
479 472
466 467
446 446
437 436
434 431
413 422
395 412
383 410
378 401
375 396
363 384
353 378
340 373
322 368
316 362
314 364
330 373
342 386
353 385
398 413
449 453
497 499
539 533
585 567
651 603
702 644
735 662
770 684
772 710
772 742
770 758
767 762
770 768
772 772
771 758
775 754
772 757
772 759
761 747
762 741
772 737
773 736
770 713
765 696
764 679
762 677
748 664
737 654
735 641
727 633
713 612
698 600
685 591
661 583
644 570
632 561
624 552
597 533
571 508
559 495
551 491
530 488
505 475
485 463
482 453
472 446
450 427
437 417
419 408
393 393
380 385
365 379
359 373
342 363
328 347
323 340
311 339
293 334
271 323
261 315
265 319
252 309
235 289
233 289
249 308
278 333
306 360
344 389
388 425
424 448
467 469
499 494
538 530
554 545
568 556
595 567
624 589
638 596
641 591
648 591
661 602
655 606
644 602
636 597
639 597
639 592
630 580
621 572
602 561
582 555
576 548
568 544
565 543
545 530
532 512
523 502
513 502
490 496
474 485
457 472
456 468
430 448
415 430
398 419
383 414
370 410
358 403
347 396
339 393
320 380
315 366
310 363
299 363
278 356
254 335
252 331
252 332
237 323
228 309
216 300
211 302
200 301
190 297
182 292
177 291
168 281
160 262
151 258
142 261
125 256
120 251
125 252
120 253
110 245
102 233
98 229
102 239
102 249
113 258
124 263
158 287
193 311
226 330
256 352
280 375
298 393
326 409
345 423
366 439
371 442
386 443
401 451
395 449
390 451
384 447
389 446
402 454
402 459
393 440
387 436
388 442
387 441
381 438
384 440
382 441
364 422
367 413
362 413
357 416
342 412
332 406
338 405
337 407
326 399
317 386
312 384
312 387
300 386
282 371
278 366
275 364
275 358
271 352
265 351
256 352
244 349
242 343
243 343
243 346
232 336
213 314
214 315
211 321
199 320
192 314
187 309
191 310
186 305
180 299
172 296
163 296
165 297
175 307
187 311
207 331
231 343
269 366
311 395
338 424
358 441
378 457
415 473
445 500
453 499
467 505
481 514
485 518
491 524
495 528
507 530
503 530
499 518
505 518
505 521
498 526
484 520
484 517
500 521
496 525
479 503
471 495
470 494
472 502
461 499
456 497
459 495
457 494
456 486
450 482
450 485
438 485
431 483
422 468
421 465
418 467
406 452
397 440
401 440
390 442
377 436
366 431
367 427
370 429
358 417
350 411
333 397
321 395
318 392
312 393
316 395
305 389
292 374
295 371
291 373
280 374
268 368
261 362
267 356
274 366
287 370
306 384
333 404
365 433
389 454
415 473
446 490
464 505
485 509
506 524
523 537
521 539
523 540
541 548
558 556
562 563
556 553
555 549
562 553
562 561
553 557
549 554
555 555
557 555
542 536
537 530
534 530
522 529
517 523
517 525
519 523
511 520
497 504
494 497
495 500
486 503
470 495
451 478
455 475
454 474
441 461
433 454
423 451
414 449
409 447
402 444
402 445
392 437
382 421
380 418
363 410
349 407
333 398
329 391
338 397
326 389
316 376
304 369
305 378
295 370
285 366
282 364
268 351
258 338
256 330
249 328
244 332
235 331
235 332
260 347
286 372
313 391
341 405
375 428
416 460
431 474
455 491
478 507
508 526
531 539
554 547
569 554
583 569
586 576
602 582
610 589
627 602
621 598
612 576
621 578
626 589
617 592
611 587
611 585
627 592
620 590
616 578
609 574
604 576
600 579
593 574
579 561
578 561
562 551
561 536
556 535
548 537
530 533
517 522
520 517
521 522
506 514
497 501
485 494
473 484
462 481
450 475
442 470
435 467
426 458
424 447
414 443
405 443
386 436
383 431
381 429
377 429
354 408
342 391
337 387
338 393
323 391
315 386
306 379
308 378
304 373
297 364
293 363
284 365
274 357
293 370
315 387
345 409
368 424
403 438
450 475
472 495
490 515
513 530
535 537
572 562
574 561
580 552
585 558
594 568
600 576
603 577
612 581
618 585
611 577
619 571
619 575
618 579
607 578
602 571
602 560
603 566
592 558
584 545
577 540
579 544
565 541
556 533
549 527
543 523
537 515
530 506
520 501
498 490
479 480
478 476
475 473
470 472
454 458
442 443
441 441
433 444
417 437
407 434
403 426
404 426
381 404
371 397
364 394
347 391
340 386
334 386
335 381
325 378
308 360
304 355
303 357
291 359
280 355
272 349
305 362
331 387
357 401
392 426
432 455
476 490
512 517
547 541
587 564
619 588
646 597
669 604
695 623
714 643
721 650
742 659
769 673
772 685
768 677
764 671
768 674
771 683
763 689
758 681
753 663
762 668
756 657
746 648
743 644
731 643
717 633
714 630
713 625
703 622
681 601
673 591
671 589
647 577
625 566
610 556
613 550
606 546
586 530
572 520
560 513
545 510
535 503
522 498
521 494
505 487
479 458
473 451
470 456
449 448
427 434
420 429
425 426
411 424
397 408
384 397
375 392
368 393
353 388
342 379
351 384
366 396
395 408
425 430
464 461
496 493
525 515
570 543
615 571
649 598
668 604
693 617
720 630
739 652
748 661
759 670
769 676
772 685
768 678
768 676
772 678
761 679
756 675
758 673
756 662
747 658
731 638
729 631
727 632
711 631
691 618
678 609
686 610
675 604
655 586
643 578
629 573
609 557
593 548
582 543
576 540
559 527
548 511
549 514
530 505
511 499
493 491
488 485
491 490
476 481
451 453
435 441
430 441
421 439
406 432
396 426
389 423
383 413
379 403
368 398
360 399
345 397
336 387
326 375
322 376
308 367
300 353
300 352
317 370
325 385
348 402
377 424
422 454
466 483
504 503
537 526
560 542
581 561
615 580
640 599
671 619
678 624
688 619
705 627
713 638
707 641
702 638
704 635
711 633
701 630
696 618
689 612
686 613
682 614
672 609
667 606
665 605
648 594
647 580
640 577
631 576
599 558
583 545
583 540
580 540
561 529
547 509
534 499
531 499
513 497
499 488
490 481
487 479
477 469
458 444
446 439
435 439
415 432
412 426
408 423
404 423
388 412
379 397
376 393
369 397
355 394
343 386
327 370
344 383
340 379
355 385
383 407
417 438
456 470
504 504
555 538
607 576
643 601
690 620
732 649
761 671
767 694
764 710
770 729
772 753
774 759
774 752
772 753
772 761
769 763
765 760
769 753
772 753
766 732
771 717
770 712
771 713
757 703
755 691
764 686
769 684
753 667
741 645
737 639
731 638
700 619
683 606
671 594
666 589
652 577
637 561
620 553
602 549
582 537
575 531
569 525
559 524
534 502
512 479
509 476
493 475
472 465
452 454
447 444
444 444
424 428
412 419
399 412
384 409
378 406
366 402
354 387
340 382
324 365
323 359
317 358
303 358
284 349
277 345
298 352
310 369
329 379
362 402
403 432
447 464
491 500
538 537
591 567
633 598
677 619
711 637
746 662
769 687
763 701
765 722
769 729
771 745
768 717
766 712
770 717
772 727
763 721
761 715
768 710
772 711
768 698
767 688
770 686
757 682
749 670
735 654
736 648
725 643
702 620
696 608
690 605
673 602
649 589
630 577
634 571
627 571
606 552
581 529
568 523
554 517
540 511
526 504
520 498
505 489
492 473
487 466
477 464
459 460
440 450
433 443
426 431
412 426
398 412
392 407
402 415
420 436
437 455
469 481
513 509
559 539
602 561
643 590
682 621
700 637
726 655
761 678
771 700
773 717
772 713
769 716
772 726
773 733
765 725
762 719
772 718
773 717
763 690
763 680
759 675
750 671
744 662
734 655
735 652
718 639
700 616
696 607
690 608
671 601
647 586
624 566
633 568
618 558
600 539
584 526
575 523
568 523
552 516
543 512
530 501
520 492
509 473
489 455
479 457
457 448
437 435
437 432
435 434
422 425
407 409
396 400
395 405
382 404
373 401
361 394
348 381
342 373
337 363
329 358
323 362
319 366
339 379
370 402
415 436
454 467
504 493
564 532
617 576
647 600
685 626
725 653
772 688
776 713
775 724
774 741
772 761
771 768
768 766
769 767
771 770
774 766
769 740
772 737
772 741
767 736
758 724
762 718
771 721
767 710
767 688
759 674
761 672
747 666
729 650
708 628
698 620
681 604
670 584
654 573
638 570
610 557
594 543
588 536
579 534
559 520
540 498
526 488
510 478
487 472
467 460
450 449
447 443
436 433
422 418
406 409
389 404
369 395
366 391
356 386
346 378
318 354
308 339
307 339
296 338
276 330
259 320
254 313
256 314
242 306
233 295
223 291
211 288
197 276
186 273
182 272
172 266
162 254
167 250
171 258
186 277
205 298
244 327
309 369
375 423
430 463
479 487
534 524
594 570
633 605
673 634
714 660
758 688
772 707
774 719
773 734
772 750
764 755
764 756
768 747
771 751
769 737
764 719
774 717
771 720
761 710
757 700
759 689
767 689
754 672
741 657
728 647
700 629
683 617
670 609
665 600
648 591
622 566
612 553
602 545
584 542
557 527
538 516
539 507
518 494
496 475
479 463
463 451
451 448
434 439
418 432
411 422
394 415
381 397
372 389
364 386
344 381
312 357
303 350
304 347
290 343
273 325
256 313
251 307
244 310
230 305
211 294
203 287
200 285
196 273
174 255
163 252
146 249
135 243
135 244
141 248
152 260
171 270
210 297
267 339
317 387
370 430
422 470
479 499
535 538
573 560
614 585
646 608
676 633
703 651
724 668
754 682
764 691
763 683
769 687
772 690
761 684
748 675
746 670
762 671
755 672
739 655
728 644
724 640
719 640
699 630
688 625
682 616
668 608
645 581
630 570
619 563
597 558
574 543
567 538
560 532
545 526
521 503
504 488
501 487
482 484
451 461
430 447
422 436
416 430
398 412
382 401
366 393
347 387
336 378
324 372
318 366
304 358
288 339
276 322
266 322
251 320
233 312
222 305
229 307
222 302
211 291
201 284
190 284
183 282
177 282
172 280
169 279
184 288
227 314
260 336
305 378
354 419
396 453
453 489
509 530
550 556
580 570
614 590
653 618
669 630
684 643
702 654
723 668
736 672
740 667
741 666
742 672
727 670
725 664
727 665
730 667
715 661
692 630
685 620
682 623
661 618
643 606
627 595
630 594
614 584
595 562
576 549
561 545
541 535
529 526
505 506
496 500
473 484
464 465
458 461
447 461
430 460
403 439
400 434
404 438
384 426
377 414
350 390
340 388
334 392
315 379
310 377
294 367
280 356
281 345
266 337
251 333
229 327
219 318
219 313
200 301
184 289
173 273
164 266
164 269
160 276
157 273
176 286
211 312
261 350
301 370
355 412
404 456
434 477
485 511
525 538
563 566
583 578
609 583
633 596
649 616
647 620
645 618
650 617
670 630
663 628
648 601
646 601
638 597
639 605
624 593
625 593
627 595
611 582
614 571
606 570
601 574
578 566
564 556
557 542
553 541
534 529
520 511
508 503
501 501
483 497
469 487
457 477
448 470
441 461
430 446
409 431
393 427
374 418
371 412
366 408
360 406
343 392
330 376
325 373
318 375
300 368
289 362
281 352
270 339
257 330
245 318
232 312
222 312
229 317
252 339
294 369
335 405
379 432
440 471
505 519
554 562
583 582
621 611
678 641
722 677
748 690
771 705
771 722
772 745
768 756
766 762
770 766
772 771
769 758
771 743
771 744
772 749
759 739
758 735
769 733
772 736
768 718
763 703
766 698
767 700
754 693
743 683
730 661
725 656
712 638
699 625
688 619
676 621
649 600
641 593
637 588
624 583
599 562
585 547
582 544
557 532
535 520
517 510
516 502
514 500
494 484
482 475
468 467
450 464
440 454
432 452
431 447
415 435
417 428
441 442
470 467
503 502
532 525
575 556
636 592
678 626
709 642
740 659
770 684
772 711
764 713
766 725
770 733
772 741
772 731
772 728
772 729
771 729
759 719
762 716
771 715
773 714
766 692
753 670
762 668
753 668
737 656
724 646
724 636
720 631
700 611
686 598
672 590
650 582
637 573
622 564
608 547
590 537
568 516
561 507
552 506
534 503
511 491
496 480
500 476
489 472
474 456
456 443
442 438
424 425
408 417
398 411
391 409
378 397
376 388
384 395
403 418
424 441
454 467
512 507
572 552
622 589
664 612
700 631
754 670
773 710
768 734
769 757
771 770
774 772
774 768
773 766
772 772
773 773
764 762
768 766
772 770
773 772
773 755
772 752
772 760
772 761
765 752
764 744
771 743
773 736
769 712
765 688
761 682
751 673
751 665
740 653
742 648
722 633
714 612
708 604
698 604
677 597
659 584
651 574
645 562
624 551
609 532
592 520
583 518
570 515
553 507
542 499
535 495
520 483
516 470
505 465
492 465
460 445
446 434
445 429
438 429
421 418
408 402
400 395
405 404
405 415
419 429
450 454
498 491
546 525
585 544
633 579
678 627
713 652
759 682
768 714
771 748
776 764
774 761
773 764
772 773
775 774
765 764
765 763
771 771
775 767
774 754
773 751
771 754
767 751
763 745
767 738
771 743
763 721
767 704
762 681
756 673
735 660
720 642
719 632
714 627
693 610
675 587
661 574
652 569
629 561
612 550
598 537
579 520
566 506
554 491
540 484
524 481
499 471
493 461
487 457
481 455
461 441
445 424
443 421
433 422
406 405
390 395
382 389
384 386
372 378
362 366
351 362
335 356
326 352
318 348
313 344
313 350
301 340
283 313
278 311
274 319
251 304
243 306
242 293
241 297
229 287
221 281
220 280
236 300
260 321
290 350
330 373
375 411
427 440
482 477
530 514
567 549
589 570
624 593
668 617
694 641
707 644
716 645
722 641
730 654
722 655
719 654
723 651
726 653
721 642
714 637
709 635
695 636
680 627
681 626
678 621
661 608
637 586
627 573
625 570
616 578
587 557
567 545
568 537
565 534
542 514
528 501
516 495
500 491
481 473
466 468
465 463
452 458
438 440
438 435
432 434
422 436
402 426
395 421
405 420
399 422
386 408
366 387
359 381
355 384
341 379
331 375
327 368
318 363
320 354
323 358
339 374
363 403
394 431
451 472
504 506
556 547
599 571
643 598
698 636
733 673
759 695
765 716
771 737
773 761
774 758
774 758
772 761
767 754
762 750
763 748
771 745
772 741
763 719
768 712
771 713
770 713
758 699
749 691
765 684
747 670
728 646
712 631
699 623
687 618
665 603
648 593
639 581
618 567
603 545
588 533
575 528
552 519
516 493
512 486
510 488
497 478
481 462
468 450
467 451
457 450
442 444
429 438
424 437
424 433
424 428
397 403
387 405
373 400
365 394
359 390
357 392
345 383
329 367
325 361
323 364
310 364
307 366
312 372
335 385
371 409
410 434
456 467
501 508
543 544
588 576
629 608
675 640
700 659
736 672
769 693
772 718
767 725
760 726
760 731
771 742
770 739
770 722
766 713
765 713
762 711
753 703
751 694
749 691
726 666
721 647
709 638
699 636
675 626
660 611
656 604
650 601
629 586
610 566
594 549
591 551
567 542
541 520
525 508
519 504
508 493
494 477
479 467
462 461
438 452
429 442
417 436
411 434
392 421
378 403
366 386
352 384
332 378
314 367
301 357
304 355
288 347
284 334
282 335
296 351
322 377
360 411
409 448
454 481
497 513
553 541
596 574
638 615
663 642
692 662
731 684
766 711
771 723
771 722
767 720
772 730
759 719
754 710
752 703
753 699
747 687
738 670
728 662
717 660
693 649
688 637
684 633
679 630
654 613
628 579
620 571
609 571
584 561
563 546
548 533
546 528
525 513
507 495
489 483
472 480
453 466
426 445
416 438
410 435
397 425
403 419
409 425
413 438
409 442
406 441
418 442
422 447
410 438
396 421
368 398
357 392
346 387
343 393
362 405
386 429
427 452
477 489
527 528
570 571
602 599
646 630
691 657
707 670
715 669
722 668
733 671
735 680
718 674
704 666
699 657
698 655
693 644
690 640
695 645
690 652
676 639
677 639
677 636
669 632
643 607
627 590
616 580
590 572
557 553
526 532
514 516
496 504
463 477
432 450
404 431
380 420
364 411
349 406
341 399
322 391
307 372
305 366
296 363
285 366
263 352
252 346
253 336
244 336
240 327
234 321
238 326
237 326
237 333
244 343
259 351
274 363
301 372
317 384
325 388
332 403
341 412
361 424
378 435
386 442
384 434
384 430
393 435
385 439
374 434
368 433
367 427
361 416
350 404
343 398
335 396
324 395
319 392
312 390
311 387
301 381
286 363
285 356
279 357
264 355
235 334
219 323
224 319
215 315
203 301
189 290
175 285
170 283
159 278
149 273
143 267
134 260
130 248
116 232
106 231
92 228
77 219
77 216
76 216
68 212
57 201
48 192
58 200
70 218
82 232
94 241
124 267
163 287
194 305
219 324
242 347
252 359
272 371
291 385
308 400
322 411
319 398
328 397
329 398
323 401
312 398
302 391
313 394
314 390
306 380
300 374
292 376
287 374
285 373
282 375
282 375
262 355
258 340
258 337
250 341
234 337
219 328
219 323
223 327
208 318
203 306
189 295
186 298
180 299
161 284
153 278
146 275
140 266
145 259
136 256
127 259
110 254
105 248
111 247
106 250
97 244
88 229
75 214
84 225
83 235
95 246
111 258
141 279
172 298
195 310
215 324
228 341
237 352
258 362
267 371
270 373
265 369
271 362
284 367
283 375
274 375
265 368
261 364
274 369
264 365
264 358
255 352
248 351
239 342
232 341
231 340
228 339
216 329
226 321
220 321
213 324
196 320
184 312
197 315
195 318
176 300
166 287
155 280
160 287
152 290
148 288
140 281
133 277
144 275
137 269
128 267
121 270
104 264
102 253
101 253
100 254
92 245
80 233
85 232
81 238
70 236
63 232
62 230
83 240
101 254
119 265
131 270
148 289
175 308
200 328
219 338
234 350
236 349
252 349
263 359
264 368
259 368
256 365
267 364
261 360
253 354
249 346
242 342
245 346
244 351
240 349
241 348
236 346
236 340
243 340
237 339
231 341
205 322
208 321
217 323
209 324
201 311
189 303
191 302
191 311
178 305
173 304
172 300
168 298
169 290
151 277
150 275
134 274
128 268
135 272
136 272
129 271
118 256
115 253
124 259
116 265
108 262
93 252
109 258
137 277
153 286
179 304
204 324
227 347
259 367
277 383
305 396
314 406
326 406
351 422
348 415
348 422
342 419
348 422
369 425
360 427
354 414
345 407
341 407
348 414
337 411
340 412
341 408
326 396
331 389
327 388
327 390
316 391
305 385
318 390
319 391
315 393
303 378
296 372
308 380
297 382
278 368
269 362
267 358
275 361
267 354
260 349
253 346
237 344
243 344
236 344
239 346
230 341
219 326
216 315
210 318
203 321
189 314
181 310
195 311
190 313
183 303
174 298
162 295
175 305
177 311
181 310
201 323
221 337
258 351
286 371
314 392
331 411
341 420
376 435
402 451
416 463
427 465
433 468
447 471
454 484
453 487
460 489
465 490
478 495
476 490
476 490
477 493
463 495
478 503
476 501
481 507
475 500
458 478
466 478
470 487
464 489
457 484
446 474
456 479
462 483
446 468
438 462
423 463
431 462
415 447
412 444
411 447
399 437
398 427
400 427
395 433
384 430
370 423
373 422
384 431
375 426
366 413
339 396
339 399
336 403
327 398
322 395
315 393
307 384
313 376
303 374
296 375
279 371
274 363
282 362
266 353
256 345
249 333
254 336
275 355
286 371
310 385
337 403
378 430
415 453
446 468
473 487
483 497
500 511
531 525
548 538
574 555
577 558
588 553
607 564
615 576
613 580
610 576
615 578
640 589
622 578
624 568
618 567
618 571
624 575
617 574
620 574
620 577
610 569
620 562
616 562
618 571
602 565
584 546
597 548
598 554
586 548
577 534
566 526
575 534
559 535
552 528
544 521
538 519
539 515
529 505
513 490
501 489
484 485
489 479
479 476
478 476
462 466
448 448
453 446
443 450
431 450
418 441
408 433
410 426
396 420
389 410
378 406
365 405
364 405
357 402
354 399
353 401
343 394
366 401
385 418
408 442
419 451
445 468
496 495
533 524
556 539
581 547
600 561
634 586
651 604
669 614
692 626
708 637
711 630
723 631
729 638
734 647
721 644
734 643
742 648
748 655
737 648
729 634
735 636
740 647
726 641
710 627
707 620
713 624
702 613
693 605
688 603
672 600
662 592
659 591
658 588
650 589
630 572
624 563
618 553
604 555
588 546
571 539
578 534
578 538
559 523
550 515
538 508
530 509
523 506
514 503
513 498
488 483
477 467
476 462
467 460
455 461
433 450
426 443
437 444
428 445
424 436
433 447
447 455
472 479
482 486
514 509
546 524
577 544
606 556
627 572
652 591
664 607
674 613
702 626
723 639
734 649
717 628
721 626
737 635
734 644
727 640
721 637
730 636
740 645
726 634
723 631
720 629
710 630
708 627
690 616
693 614
680 611
663 594
666 590
658 590
646 591
623 579
611 572
624 573
611 574
597 560
583 554
562 533
560 536
544 530
537 527
535 520
520 514
520 503
510 498
505 498
490 497
472 487
484 490
484 490
468 478
453 461
441 453
449 457
439 460
427 455
418 449
416 445
426 449
426 448
441 457
460 476
478 492
507 503
541 528
585 553
615 574
636 581
676 602
707 627
726 648
738 658
754 668
771 689
773 697
771 692
768 682
764 688
765 694
762 694
763 696
771 701
764 691
765 677
769 681
771 682
762 678
746 664
747 649
752 653
741 644
724 624
708 611
711 611
699 610
680 598
667 590
660 583
652 576
641 566
627 559
609 547
585 540
582 533
577 534
575 536
557 528
542 511
540 504
538 508
519 504
508 496
495 486
498 483
476 467
463 449
450 441
434 439
421 433
416 431
411 427
414 431
408 430
428 435
459 459
496 494
523 521
549 533
599 559
657 598
693 630
727 640
754 653
772 682
773 709
768 725
771 739
771 760
775 765
774 759
773 756
772 766
771 768
763 757
770 761
771 768
777 762
773 742
770 735
772 742
769 739
765 726
766 715
770 701
771 691
768 673
768 665
764 660
750 648
757 639
752 632
753 629
731 611
720 592
719 587
702 580
677 568
655 552
648 542
658 547
633 537
618 521
603 513
592 510
587 509
572 502
567 499
559 496
530 472
530 461
518 458
507 458
485 450
467 438
476 438
466 436
449 425
434 410
419 401
421 406
400 402
377 386
365 377
352 371
349 362
335 353
323 349
306 346
282 336
288 334
289 339
300 351
315 362
338 374
378 395
422 437
464 474
509 507
556 536
618 573
653 599
691 620
725 644
754 670
763 691
767 710
769 723
772 727
768 718
771 719
770 724
772 733
766 726
759 719
769 719
773 725
772 710
772 702
768 695
764 686
761 678
759 670
765 660
757 652
751 632
744 621
734 613
719 609
695 594
695 588
701 589
693 590
666 567
654 557
657 560
658 571
641 568
631 566
628 561
630 564
620 553
608 546
599 543
588 547
572 533
561 525
554 518
538 506
517 483
510 469
507 466
488 462
470 455
463 453
489 462
510 481
528 493
559 513
584 528
625 562
663 591
697 619
740 645
769 672
770 682
773 701
770 721
773 741
767 745
764 750
769 756
772 752
774 737
770 725
770 724
772 731
763 723
764 715
772 708
771 704
770 688
767 680
768 676
755 668
734 643
736 636
735 629
723 622
698 597
687 586
687 585
669 584
647 574
628 563
635 558
633 555
604 529
588 520
575 515
557 509
549 501
533 497
530 493
510 484
493 466
492 461
482 461
469 462
445 448
420 428
430 428
419 425
404 410
385 397
369 394
373 396
356 392
349 388
344 386
338 377
353 378
364 387
375 399
398 421
427 445
494 489
536 522
578 550
613 569
650 589
701 625
728 652
752 670
765 691
771 711
773 715
773 712
773 717
772 726
767 728
764 728
766 732
772 740
773 736
768 717
772 719
773 723
770 721
760 698
755 690
771 693
769 686
766 667
761 655
753 650
747 647
736 639
728 632
727 631
705 616
692 590
682 585
673 587
648 580
625 565
625 559
620 560
599 547
580 527
563 511
559 511
542 505
524 492
501 471
491 463
481 452
470 439
456 430
444 428
422 418
418 411
413 409
409 410
391 400
381 387
379 382
367 377
350 375
338 369
329 365
341 369
347 377
362 383
385 402
418 432
462 467
514 505
566 543
619 581
642 593
688 609
731 637
766 669
769 690
763 702
768 718
771 740
775 744
774 735
773 735
772 752
769 753
763 738
767 738
771 743
767 734
771 720
770 715
772 716
757 706
755 694
763 688
766 687
747 669
730 643
714 621
709 621
686 614
667 597
651 583
650 576
635 564
619 545
611 542
587 529
569 520
565 516
545 498
538 493
514 478
503 461
497 455
483 455
463 447
442 433
438 423
440 423
421 412
412 402
396 394
376 381
370 379
358 376
355 373
346 371
335 360
337 355
330 356
322 359
304 350
297 346
312 350
301 351
280 326
266 316
260 310
259 314
248 311
247 315
264 324
288 343
331 366
376 400
431 439
481 486
527 519
577 547
628 583
675 619
701 632
736 649
771 676
772 704
768 717
766 724
769 729
772 743
772 733
772 724
771 709
763 709
760 702
758 698
769 692
767 687
758 673
756 654
749 649
737 648
716 636
701 621
705 610
681 598
658 577
639 561
624 551
616 551
594 542
578 535
572 525
556 518
549 502
539 497
531 496
503 484
480 470
481 468
479 465
468 461
448 442
433 429
431 427
419 427
399 418
383 409
378 402
374 397
352 374
338 366
326 363
307 357
302 350
296 350
295 347
283 342
268 324
268 320
266 323
254 325
238 316
215 299
227 301
238 312
250 320
275 339
308 367
357 406
405 444
454 481
508 517
547 547
592 568
633 592
658 608
682 633
694 643
726 659
759 676
769 689
768 682
762 679
768 685
770 695
759 693
760 692
764 690
760 681
759 670
753 666
752 666
736 663
726 656
725 654
724 657
712 648
691 626
685 617
682 617
652 602
628 589
611 578
612 573
601 561
579 542
567 533
549 525
532 515
521 508
507 501
504 501
483 485
461 456
454 448
441 448
422 442
398 429
392 420
396 421
379 411
364 395
348 384
339 383
337 386
324 381
305 364
296 360
284 349
289 341
278 337
269 339
249 333
243 327
258 335
273 353
290 367
323 385
363 412
410 445
449 483
493 515
532 542
580 573
620 598
648 610
674 628
694 649
703 660
724 669
735 678
750 688
729 674
724 657
732 658
728 664
714 663
699 653
693 647
707 652
691 645
680 628
669 620
657 616
647 612
622 594
612 588
604 584
583 569
582 553
568 547
557 547
531 538
513 524
516 521
513 523
495 513
471 483
456 471
456 474
438 471
425 464
413 455
406 450
402 440
394 428
383 423
375 428
350 415
349 409
336 399
332 397
316 381
303 364
305 362
298 367
282 364
269 356
259 346
265 344
256 338
249 330
241 326
229 322
248 338
276 362
315 391
360 425
398 451
453 480
500 515
538 551
562 574
585 589
629 610
659 633
658 630
667 627
670 628
682 638
678 642
674 639
676 637
676 638
674 630
675 623
674 625
668 628
648 620
641 605
642 604
640 606
623 593
608 574
605 569
599 571
578 561
561 552
552 540
551 540
538 524
522 513
504 495
484 490
472 481
466 479
463 476
452 473
433 454
432 446
434 447
423 449
411 445
397 438
396 425
397 428
384 415
377 408
368 402
361 402
355 400
345 397
344 393
332 389
333 380
355 394
377 415
397 436
427 464
483 505
553 548
605 592
649 617
691 644
750 683
773 716
770 743
770 767
770 769
772 772
774 766
773 762
771 766
772 771
763 765
767 767
770 768
772 772
773 761
769 752
771 755
773 761
766 750
754 727
764 718
772 716
763 695
760 682
752 671
741 665
732 654
717 645
716 636
699 628
677 604
673 593
652 578
633 574
606 559
592 548
598 544
582 540
561 522
543 506
531 498
525 498
505 491
491 483
473 464
458 453
451 438
436 429
424 425
403 418
385 407
383 402
377 400
366 395
347 376
337 367
338 368
314 357
299 350
285 344
281 338
284 336
274 325
265 320
259 321
259 330
287 349
321 380
376 420
424 457
468 478
538 521
595 567
641 610
676 637
717 666
771 705
774 733
774 744
774 758
772 768
772 772
771 771
766 765
771 770
773 768
773 756
774 754
772 761
773 758
758 745
764 742
771 745
773 736
769 714
760 698
763 687
756 681
742 670
730 657
725 649
723 637
704 617
689 606
675 600
647 587
643 577
632 569
626 566
593 542
574 520
567 511
559 514
536 508
516 493
500 482
505 479
488 469
472 452
457 442
438 436
416 420
404 411
391 406
380 403
360 390
357 376
352 371
338 372
317 366
299 354
299 350
303 355
284 346
266 321
251 309
248 311
238 311
226 306
216 299
205 293
196 284
202 279
203 287
221 310
244 339
293 373
345 408
406 459
459 498
512 526
567 558
624 603
656 634
688 656
720 675
766 702
774 717
772 722
773 728
766 727
759 729
762 731
764 732
771 736
765 723
761 705
770 705
770 714
756 703
745 692
752 684
762 687
731 663
719 641
704 628
696 625
685 620
666 609
654 601
643 593
625 577
621 563
607 557
595 557
567 541
545 517
548 513
541 512
522 499
504 479
494 472
493 475
470 469
453 456
438 445
435 442
425 430
399 409
389 403
373 397
355 390
355 386
345 382
340 380
321 365
310 349
311 350
299 349
288 350
283 349
293 351
336 380
370 407
416 438
467 478
522 524
580 564
627 602
684 638
726 671
757 687
774 713
770 739
772 757
771 765
762 764
769 767
772 772
774 765
774 758
770 752
772 759
767 755
765 750
769 744
771 738
766 710
767 696
770 689
760 685
739 667
736 659
734 655
726 649
702 623
687 603
688 599
668 595
644 582
615 558
605 544
607 541
587 524
565 510
548 501
533 498
518 490
502 484
492 478
481 472
455 448
443 426
433 422
414 420
386 408
365 399
374 395
365 389
347 372
333 359
319 349
311 349
296 346
283 341
263 322
248 312
248 298
240 294
231 293
213 290
198 278
200 275
203 275
191 270
168 256
163 250
165 249
157 244
159 254
181 275
221 304
286 347
343 386
404 432
470 481
521 524
576 558
625 593
678 626
712 653
724 648
759 663
772 687
772 705
764 707
756 708
772 713
773 720
769 708
770 704
764 704
762 701
759 697
753 692
756 680
745 673
738 653
731 642
721 636
701 632
673 613
668 604
669 598
653 592
629 568
609 550
594 533
581 530
558 520
543 512
533 506
524 494
514 479
497 469
483 467
457 457
447 453
437 440
418 427
406 416
382 392
370 379
366 379
346 373
326 363
308 351
306 348
303 339
286 325
276 319
260 315
236 299
231 295
218 291
215 292
198 277
193 266
211 277
231 304
256 335
296 369
362 412
443 470
497 514
547 535
595 569
647 609
695 648
732 676
764 702
771 731
773 747
774 755
774 761
772 771
771 774
760 764
767 758
771 764
774 757
768 734
764 725
771 728
765 723
760 708
756 696
748 691
761 685
748 662
734 648
711 629
674 619
648 607
628 616
608 618
574 604
547 576
554 570
533 580
494 575
462 562
430 547
459 550
418 534
432 502
414 473
352 471
347 475
333 474
313 466
288 459
272 440
280 423
271 417
248 414
202 392
179 378
191 372
188 372
168 358
148 338
139 325
139 320
129 318
114 311
95 301
83 290
92 282
80 264
65 258
40 255
18 246
29 244
31 243
26 244
24 242
41 251
99 286
166 341
222 392
277 437
335 469
421 520
478 562
523 592
562 620
598 645
638 668
671 688
695 705
710 721
711 717
739 715
753 721
740 719
721 715
712 703
730 701
743 710
727 700
715 683
707 670
707 673
701 672
687 665
674 654
655 644
635 621
630 611
613 604
585 599
554 581
556 570
561 565
545 560
516 537
490 517
495 510
491 512
456 491
436 477
416 464
421 460
413 448
397 438
378 427
354 419
350 407
346 405
340 398
322 391
292 369
289 348
292 344
274 342
241 331
215 322
225 316
228 316
217 305
215 308
240 322
272 355
336 401
392 448
442 481
492 528
555 559
625 602
676 642
720 680
737 693
757 717
770 742
772 773
774 771
773 763
772 760
772 764
769 766
766 764
766 761
764 763
771 754
772 747
771 743
759 739
747 727
760 728
768 724
748 722
717 685
711 667
722 665
708 664
680 646
646 630
644 619
649 619
625 603
602 587
583 575
568 567
564 558
539 545
525 535
501 523
487 498
495 491
483 491
459 486
433 466
414 452
430 450
417 448
389 428
352 400
338 390
344 392
326 385
306 376
286 365
279 353
286 339
272 333
254 327
227 318
220 314
259 327
280 341
317 370
354 396
417 430
487 482
540 533
580 565
617 595
667 622
726 655
753 670
773 691
772 708
757 712
763 723
766 735
771 744
769 739
754 720
767 717
772 723
770 719
751 709
737 692
768 697
765 693
732 660
710 642
699 633
701 630
682 621
661 612
645 602
625 584
624 565
610 555
591 553
558 539
526 520
523 506
521 508
497 493
466 470
451 452
457 450
436 448
412 439
388 427
376 419
378 411
370 396
349 384
313 367
283 355
287 351
284 349
268 343
245 327
238 309
239 295
233 298
206 297
186 286
177 272
174 261
165 257
153 244
135 231
116 226
114 224
115 226
115 231
125 247
146 270
218 306
289 358
346 414
379 451
425 489
503 531
568 577
598 607
627 617
651 631
697 658
719 679
731 688
740 691
753 698
763 695
762 677
753 676
739 683
722 676
733 669
739 672
743 675
724 663
711 641
709 636
713 646
691 648
666 632
636 607
647 603
637 596
619 577
594 568
567 554
552 547
554 544
537 537
522 527
486 508
487 491
488 486
468 472
444 456
418 437
418 427
422 427
394 418
371 399
345 387
344 386
343 387
325 379
305 367
274 346
266 333
271 324
259 315
235 313
217 308
235 318
283 349
326 390
368 425
414 456
492 503
564 557
600 586
638 616
677 644
730 676
768 702
774 718
772 736
772 753
761 762
767 765
772 768
772 772
770 762
759 735
773 737
772 742
765 734
750 723
758 716
771 721
764 707
754 692
746 677
739 672
739 668
720 661
699 639
677 626
666 600
667 587
653 578
628 571
593 553
579 540
591 536
576 533
551 514
526 493
515 482
508 475
482 468
458 459
443 445
434 436
434 423
417 414
396 408
362 401
348 387
358 385
357 387
330 371
294 336
284 322
287 318
275 319
249 302
226 291
226 289
260 308
285 330
320 364
367 407
428 456
491 497
548 548
614 587
665 621
707 638
765 669
771 707
772 742
769 759
761 767
770 771
772 772
774 771
773 756
770 752
772 761
767 759
766 759
770 752
767 746
770 731
772 722
771 714
762 706
743 689
758 680
752 663
736 657
704 629
687 611
699 605
684 605
654 591
621 577
617 563
626 555
608 536
589 524
565 513
531 491
528 483
513 480
503 474
478 460
453 434
448 424
436 428
410 426
376 409
357 397
369 391
355 387
322 359
295 342
273 331
275 329
263 324
246 316
225 306
201 294
210 282
210 277
202 274
181 265
158 250
156 238
158 239
142 230
126 220
136 220
181 252
229 296
283 345
335 390
417 444
510 500
573 543
613 577
662 620
702 653
755 682
768 717
771 748
773 764
772 757
773 758
773 768
773 773
768 766
757 763
772 762
774 765
774 756
772 750
760 748
755 746
763 744
762 736
760 732
743 711
748 686
753 679
745 672
702 645
670 621
676 608
682 606
657 592
626 568
600 550
600 546
594 544
573 530
551 518
539 510
533 496
522 473
504 462
485 457
456 443
451 430
452 426
443 423
410 410
386 389
384 380
388 387
365 381
340 369
317 346
325 342
322 336
307 325
286 317
275 316
286 322
314 343
345 375
389 414
432 450
501 485
560 522
612 572
646 610
676 637
731 669
772 712
777 735
774 744
772 758
771 768
774 772
769 770
769 771
767 770
762 760
771 750
773 750
772 752
753 740
750 726
765 726
772 728
758 710
730 676
735 668
741 662
710 644
681 628
655 609
655 601
647 589
629 572
602 560
579 548
556 531
557 524
545 515
534 507
502 483
480 449
480 443
461 443
433 430
403 413
399 400
407 398
386 385
364 364
332 350
327 346
322 340
301 332
273 312
251 299
240 281
246 271
231 266
208 262
183 250
176 240
185 239
173 237
156 225
117 211
103 204
106 200
98 201
104 212
127 232
177 267
252 307
315 354
372 403
418 454
477 492
542 537
593 573
620 596
635 605
670 616
717 640
736 663
735 669
730 669
748 667
772 678
759 667
745 662
731 660
722 660
717 649
708 651
704 648
698 642
672 620
683 616
678 616
657 615
626 596
604 584
634 587
616 580
585 558
550 533
537 517
542 517
522 507
501 499
483 487
471 479
468 465
455 459
435 455
414 446
393 433
400 430
391 417
373 412
350 391
334 373
341 370
330 371
304 361
275 351
269 341
293 346
308 352
327 368
356 395
387 422
451 464
508 510
565 548
602 582
639 599
696 626
740 653
759 681
760 693
749 706
770 721
773 725
771 713
763 703
750 697
760 703
756 701
747 696
744 687
732 678
746 660
742 649
735 646
707 639
666 612
674 606
673 603
653 596
614 570
595 551
595 546
583 547
556 532
530 516
520 501
528 494
512 478
482 456
462 445
436 434
436 425
426 419
419 412
399 400
377 376
377 368
370 371
351 368
313 359
285 350
288 341
285 335
265 320
244 307
225 303
249 317
268 330
294 361
339 404
389 437
461 473
527 524
577 577
602 606
634 631
694 666
756 709
773 736
774 745
770 756
772 765
773 772
770 769
767 769
771 769
771 766
771 747
772 743
768 743
751 734
753 719
762 714
771 712
742 699
721 671
724 658
732 661
704 653
663 624
636 606
642 599
634 590
611 570
583 552
558 540
549 527
544 519
528 509
511 499
480 482
474 461
465 443
444 443
417 432
394 412
390 401
398 402
377 391
350 371
327 356
325 351
320 348
302 344
281 333
252 311
240 297
246 287
229 281
201 279
168 268
170 259
179 257
169 257
146 244
127 223
131 216
137 218
106 208
83 200
62 189
61 184
80 188
94 195
115 223
153 266
216 314
301 373
373 434
439 490
491 530
541 548
610 587
655 633
682 665
702 680
741 698
772 733
775 745
774 741
768 741
762 749
765 754
764 749
756 733
749 730
743 715
762 703
763 700
751 699
720 687
713 673
731 671
729 673
700 659
679 631
655 605
661 608
637 603
611 592
595 570
588 558
587 547
572 535
554 523
532 514
506 500
517 498
509 495
486 480
461 462
441 440
453 440
445 445
416 438
393 424
385 414
407 416
395 407
377 394
355 386
346 379
341 364
331 365
321 361
306 358
307 351
350 372
390 406
425 447
458 478
503 513
589 554
643 600
676 618
691 627
727 650
769 691
768 707
767 724
769 743
766 747
773 749
774 750
770 749
766 749
747 732
758 729
769 718
768 717
742 695
732 675
753 671
750 672
728 656
708 647
701 623
706 616
686 599
665 584
626 557
599 541
594 530
578 525
562 516
536 505
504 478
512 468
504 464
479 462
441 445
424 431
441 424
418 410
396 390
373 369
356 354
356 352
339 344
317 335
298 323
276 309
278 293
270 286
259 281
232 271
196 246
199 243
195 245
181 239
160 220
142 204
147 204
145 215
147 224
162 244
205 275
277 326
346 374
397 410
452 459
499 507
564 549
618 594
668 627
696 655
711 663
762 685
772 712
773 735
765 738
750 735
765 727
772 734
765 717
752 701
743 690
747 689
740 685
726 677
715 667
704 653
705 635
704 627
690 625
649 610
625 593
635 587
644 590
626 587
597 564
583 545
588 540
580 540
554 531
533 520
517 509
506 488
502 476
485 465
471 467
434 445
430 436
430 435
422 433
398 419
372 394
375 384
378 389
355 384
310 361
294 346
300 343
300 337
280 322
255 309
232 302
229 296
230 294
215 287
192 282
176 267
174 251
168 239
166 247
173 260
197 278
254 316
327 375
377 424
425 461
479 500
547 545
604 589
642 619
672 644
698 658
734 675
769 687
773 700
771 713
752 714
749 710
763 715
772 720
749 705
737 680
736 665
745 669
714 651
681 638
670 623
672 618
669 612
652 592
623 580
601 571
588 561
587 555
574 550
556 542
522 522
505 488
506 482
488 481
452 469
416 447
414 433
423 430
401 415
378 395
347 377
347 375
344 371
315 352
294 341
276 331
269 316
280 305
267 299
241 298
210 289
204 281
217 280
207 280
189 272
165 253
142 231
152 238
137 242
111 232
90 220
94 215
116 221
137 234
163 260
197 300
250 341
329 395
390 441
434 474
463 502
508 521
565 554
596 588
602 606
608 611
629 616
667 634
664 635
655 623
642 616
643 615
641 607
634 603
625 599
614 598
603 584
617 579
613 579
595 580
562 570
556 556
575 558
571 557
547 540
510 508
496 496
506 500
488 494
466 481
448 465
435 454
437 446
424 435
404 429
383 424
366 408
366 398
366 395
352 391
328 372
317 360
335 363
331 368
310 359
289 352
292 345
303 348
296 342
281 332
250 315
250 321
286 340
317 372
359 408
401 448
459 479
539 522
598 567
638 610
658 636
699 663
765 695
771 720
774 727
772 735
768 747
772 764
769 765
767 766
770 763
765 764
771 755
774 741
770 737
765 735
734 706
749 699
761 695
755 689
729 662
716 640
728 635
715 634
684 619
651 604
636 590
644 587
625 569
591 541
567 526
540 513
534 503
522 500
507 491
482 479
457 452
457 440
452 438
429 437
394 421
376 407
381 394
373 394
349 376
322 361
307 350
310 349
299 346
281 337
271 330
253 314
254 300
250 295
222 279
191 270
171 262
199 273
233 299
263 334
304 358
351 393
430 446
491 502
532 540
570 573
620 599
663 622
700 642
722 664
741 685
751 702
759 713
765 728
771 736
773 736
755 716
761 711
772 717
770 717
742 692
733 679
761 676
763 674
742 656
717 643
696 635
699 634
690 628
672 619
658 613
640 596
636 575
623 556
614 564
576 546
548 529
555 523
565 527
547 518
517 495
499 478
503 476
503 478
483 467
461 453
439 435
438 424
435 413
420 406
405 405
376 392
374 384
376 384
368 387
345 380
332 373
358 383
399 415
412 436
441 468
479 503
552 546
607 583
643 604
668 626
695 652
731 672
759 691
765 712
771 729
751 718
757 706
769 709
771 714
755 708
732 692
736 684
756 689
737 678
712 655
693 635
695 632
686 628
655 608
628 594
609 584
599 567
601 550
582 539
557 534
521 518
514 505
520 502
510 504
488 490
464 466
450 444
455 452
436 453
415 442
397 430
406 427
406 423
392 411
370 403
345 397
333 389
342 389
329 383
305 366
276 347
275 333
296 342
310 364
318 386
340 411
386 442
462 490
501 524
542 555
564 570
605 599
638 617
659 636
676 655
692 676
710 677
744 679
753 683
749 691
725 686
722 676
743 679
744 681
711 659
694 637
682 625
690 634
670 634
646 623
624 613
623 608
628 603
614 590
595 584
577 584
569 578
587 576
600 583
615 597
613 595
620 588
645 598
648 608
631 603
608 589
607 573
610 569
580 555
544 529
501 491
468 475
462 467
446 459
432 452
422 447
412 433
424 428
420 432
413 437
399 434
406 445
459 466
478 488
494 505
518 523
556 542
597 574
614 596
621 611
640 620
649 627
672 629
683 636
686 643
674 649
669 634
687 639
696 647
689 654
666 636
658 622
674 621
667 626
640 617
613 604
606 595
618 595
608 585
589 569
578 570
576 578
586 579
589 581
584 582
576 588
546 555
556 547
544 536
515 534
475 513
436 486
456 478
455 474
438 458
422 449
415 444
427 452
423 454
411 449
395 440
373 427
372 408
364 399
343 384
327 392
339 399
380 426
427 458
452 480
465 482
472 483
499 495
508 511
500 512
486 509
480 501
481 493
479 484
466 477
450 470
428 467
439 467
448 473
457 478
458 480
448 466
462 464
475 474
460 477
431 455
396 448
416 447
420 452
402 439
383 429
372 420
375 422
376 425
362 423
353 418
336 405
341 387
331 368
314 361
283 351
240 335
249 326
257 323
242 316
216 298
187 284
190 282
200 291
185 286
169 278
139 259
156 259
173 263
178 273
180 288
194 299
231 313
258 332
276 350
284 350
282 343
302 345
309 347
293 344
277 334
267 325
272 319
263 308
238 293
215 281
189 274
195 273
213 294
203 291
188 284
174 266
187 263
204 274
208 291
198 294
179 280
191 283
209 294
200 288
182 275
175 265
183 271
187 278
166 266
154 261
146 260
152 256
172 254
167 254
154 260
140 255
153 254
165 260
163 266
148 263
143 251
153 245
183 270
194 293
207 311
225 328
268 351
303 370
318 379
322 385
326 395
343 405
363 415
370 424
366 423
357 414
368 407
387 413
385 423
369 421
358 412
361 410
390 423
381 421
379 412
364 404
359 397
370 403
362 400
351 396
343 391
335 381
347 375
339 373
323 373
296 364
291 358
311 363
307 367
281 346
263 333
264 332
284 345
273 348
262 341
259 331
267 333
272 328
259 322
246 317
239 321
246 323
270 327
293 348
322 371
330 383
355 393
395 414
410 435
410 445
412 445
433 451
467 468
473 476
474 471
461 462
464 466
476 473
471 477
470 474
469 477
467 470
490 471
495 477
489 484
472 480
471 477
488 479
470 468
441 450
415 423
395 403
382 396
351 382
317 363
292 344
278 330
281 320
274 316
262 310
248 307
231 296
246 301
245 306
239 310
225 302
226 296
245 306
251 320
251 322
254 334
287 347
328 375
343 378
356 392
368 406
379 420
402 434
410 445
419 453
414 454
415 443
436 444
440 448
428 457
402 448
383 433
409 434
409 437
395 425
384 416
383 414
400 426
392 427
382 427
379 421
377 416
380 407
375 406
353 393
329 391
314 389
322 384
323 384
307 383
290 362
276 352
287 351
280 352
263 343
248 337
245 329
249 320
243 313
235 308
223 307
224 316
256 326
276 346
301 366
314 384
327 388
360 405
383 426
389 437
375 425
377 427
409 433
418 442
412 436
401 434
407 434
417 443
424 449
426 456
437 465
438 473
459 476
464 474
467 478
451 477
434 464
436 457
435 452
414 441
380 414
357 393
350 386
345 391
323 381
299 362
293 354
307 353
303 347
291 345
282 344
274 341
281 338
281 342
271 344
257 340
247 327
270 331
280 335
291 351
298 363
307 377
347 395
369 408
367 407
363 404
358 402
359 405
362 409
360 412
356 406
333 387
328 373
334 373
323 373
304 372
284 362
287 360
302 371
290 367
278 355
268 350
275 355
279 360
261 350
256 351
252 353
260 348
272 345
268 346
258 346
236 337
228 326
230 321
218 319
194 301
169 277
151 257
157 266
142 272
127 274
120 274
139 283
154 291
152 291
147 286
131 288
130 289
143 294
131 282
120 284
104 274
120 268
137 273
135 286
124 289
120 284
129 282
155 294
145 298
142 297
138 293
132 287
148 295
144 300
139 296
124 292
114 283
132 279
121 277
112 274
84 266
84 263
119 276
126 287
110 273
104 265
105 263
124 271
109 268
91 254
67 238
44 225
36 217
26 209
20 208
32 229
69 253
126 276
166 308
184 334
192 340
199 333
218 337
212 342
192 333
165 317
161 313
202 330
196 329
196 326
181 316
182 316
200 322
195 322
182 315
166 311
136 288
141 278
132 280
115 275
88 269
76 257
96 253
102 263
100 266
98 262
99 264
129 278
128 283
116 277
95 269
82 257
84 246
72 239
45 230
5 207
0 192
4 190
19 199
23 208
36 216
63 228
121 258
155 289
171 309
178 319
194 327
218 337
210 328
196 317
173 305
156 294
152 284
132 275
108 267
80 261
73 252
100 258
127 279
147 300
150 310
149 307
183 314
195 323
178 314
150 300
133 284
123 276
104 264
75 254
53 243
38 238
50 230
54 230
56 237
44 245
35 242
61 246
73 253
63 254
51 244
44 245
82 261
111 286
129 298
131 311
147 316
169 317
189 317
185 317
170 317
155 313
158 306
161 307
150 302
123 297
100 283
126 288
148 301
149 313
141 314
142 309
173 311
186 323
176 314
149 309
124 299
124 296
119 289
97 284
81 275
62 264
60 240
61 243
55 248
42 248
40 244
60 244
85 252
80 259
72 256
69 256
101 267
136 294
151 306
160 309
178 319
214 336
242 344
244 351
241 352
232 350
245 344
233 344
215 336
178 323
157 301
163 294
147 289
130 292
113 291
125 293
157 304
171 320
166 318
153 315
146 314
147 314
144 314
127 312
104 301
70 276
61 257
63 253
40 248
12 244
0 232
10 228
29 233
28 240
20 239
26 242
64 253
86 264
109 281
127 296
149 305
167 314
193 320
193 326
183 329
163 330
173 324
194 327
190 332
180 328
156 300
149 294
164 306
155 313
143 312
138 311
151 315
174 319
177 321
169 320
152 322
159 324
180 329
165 318
157 318
136 307
139 297
152 301
148 309
128 309
112 303
121 297
138 305
131 304
122 301
114 303
116 305
161 325
179 347
199 361
219 379
241 382
275 383
284 398
284 404
281 401
288 396
306 402
305 414
281 399
276 385
275 379
296 385
294 384
298 379
292 377
300 380
309 381
312 377
309 380
301 383
290 379
293 368
293 371
288 377
275 372
266 360
278 367
283 375
275 375
265 368
266 362
290 367
279 367
272 362
258 355
270 366
299 382
319 401
332 424
357 443
373 446
399 448
418 461
420 472
418 478
418 476
434 471
450 480
441 475
426 466
424 463
436 469
430 474
421 473
419 471
421 473
432 471
439 473
438 479
418 473
404 468
416 465
431 472
433 484
414 469
398 455
414 457
419 467
406 465
394 455
392 452
414 456
404 442
395 435
378 440
379 449
401 460
425 475
448 491
471 509
481 513
514 518
535 535
549 552
542 551
539 538
567 540
580 552
565 548
553 539
548 537
563 543
557 546
550 543
547 545
551 547
569 543
573 539
553 534
540 540
532 536
546 533
556 539
553 544
538 535
530 524
543 526
548 534
538 534
527 527
517 520
525 520
519 514
508 509
496 510
486 512
500 512
525 524
554 535
574 553
589 556
631 569
671 589
676 595
681 599
690 603
730 611
757 628
755 626
760 629
757 633
759 640
761 643
760 645
769 647
762 649
752 628
765 631
770 638
762 646
745 641
756 641
768 647
772 652
758 641
747 634
757 634
770 641
750 637
724 624
723 620
728 624
734 614
726 609
716 608
704 607
693 598
705 600
705 603
694 605
678 592
681 588
699 590
711 608
716 616
734 624
764 638
772 656
774 658
773 663
771 672
764 683
768 695
771 707
769 715
772 712
767 701
773 701
772 704
772 708
765 702
762 702
770 709
772 719
774 706
772 700
770 698
772 698
770 693
770 691
770 684
772 681
773 669
774 666
771 663
763 658
751 644
766 643
771 641
768 635
731 607
741 599
758 602
749 607
728 601
712 584
730 581
739 582
719 564
697 549
687 546
683 542
683 536
666 525
648 517
636 515
626 502
627 499
619 503
611 514
604 512
627 524
673 547
690 568
703 577
723 586
740 591
767 615
767 626
768 634
770 650
773 659
774 657
774 666
772 671
770 669
757 664
768 668
771 678
773 664
763 647
762 643
772 651
772 656
767 645
764 646
771 644
773 637
770 633
770 631
761 623
747 619
760 612
754 604
758 606
738 600
724 582
739 577
737 588
708 577
695 563
696 560
701 557
688 554
658 525
636 515
640 518
628 513
613 508
591 501
591 505
587 503
594 498
611 510
614 531
619 542
636 543
672 550
691 566
693 572
704 573
723 577
753 594
756 605
758 605
756 604
755 609
761 609
762 606
747 606
719 600
708 601
729 597
724 601
716 606
687 598
682 584
697 583
698 587
677 580
653 570
648 565
663 569
641 554
625 539
608 532
598 531
601 527
593 521
580 515
572 512
551 500
552 490
551 494
540 494
519 484
492 462
511 458
507 459
492 456
474 445
457 432
470 434
453 436
433 436
413 433
426 446
446 456
461 456
477 471
493 489
501 502
545 516
576 531
598 549
599 552
609 550
626 560
646 581
642 586
639 579
628 566
654 574
649 573
640 566
630 565
631 566
638 564
642 563
639 561
630 565
618 555
627 548
630 551
610 545
585 538
573 532
592 529
599 534
583 525
559 518
537 514
541 517
545 519
531 511
514 509
503 507
498 487
494 477
479 481
465 479
448 465
447 459
456 461
440 464
417 446
402 438
414 436
420 440
395 432
365 419
360 412
364 415
375 413
377 419
387 430
408 446
429 457
471 483
501 507
517 531
530 534
560 546
597 559
615 579
618 587
637 596
673 602
701 617
693 616
687 615
693 619
695 624
707 627
704 631
693 624
682 623
681 610
701 611
700 612
680 615
657 605
656 600
681 603
668 609
643 591
626 580
624 575
623 570
606 566
582 556
568 547
566 542
567 532
555 531
546 533
513 519
503 512
523 512
522 508
506 511
465 477
456 471
470 476
458 482
430 470
421 460
417 451
427 453
413 441
389 434
377 429
364 426
372 422
356 411
351 405
335 397
318 382
326 380
328 386
319 391
306 389
310 397
357 418
389 446
410 455
435 471
462 478
506 501
534 520
559 533
589 546
609 557
639 561
655 576
667 589
666 596
665 592
695 597
706 605
693 600
676 586
671 580
692 588
689 599
673 595
656 592
651 589
667 593
658 586
642 585
631 577
603 560
613 553
606 551
600 552
577 540
560 525
570 516
566 515
551 508
522 497
502 490
520 492
513 485
482 462
458 453
447 450
449 448
440 446
427 442
415 441
397 429
400 414
395 414
381 415
356 412
325 401
327 392
331 399
312 393
289 379
281 372
289 375
283 376
272 369
255 363
236 361
246 355
255 352
247 352
230 348
238 352
265 361
296 383
326 407
345 419
377 424
417 440
455 470
471 488
484 501
498 510
535 529
551 532
558 533
558 538
561 546
574 552
593 556
595 558
600 564
587 555
596 545
613 555
607 564
582 552
565 544
584 544
602 554
583 550
570 536
557 530
562 532
561 534
550 526
533 521
528 522
522 510
519 489
505 489
501 497
471 479
468 470
479 473
474 477
443 466
417 448
418 443
432 449
424 457
409 436
388 417
396 415
390 410
373 401
359 396
347 393
338 389
352 391
341 392
317 386
297 379
298 371
302 370
279 367
256 364
251 359
268 362
291 373
292 384
303 389
330 401
362 420
408 445
435 461
463 480
494 493
495 491
530 505
543 523
556 537
560 539
574 538
603 548
614 560
606 555
598 549
607 550
628 562
621 566
606 553
603 550
613 552
622 551
619 544
606 545
595 547
579 543
594 544
590 546
589 547
570 531
552 507
558 510
549 518
529 511
513 503
507 496
518 502
502 493
480 489
465 485
448 484
457 485
450 484
433 469
414 464
397 447
410 445
409 446
392 445
365 434
359 429
379 429
365 430
341 416
330 411
324 403
322 400
314 402
305 407
313 412
340 424
378 434
406 458
439 487
461 510
496 526
562 551
613 579
639 604
657 595
695 606
744 626
766 646
763 651
762 653
769 656
772 668
773 663
773 662
768 668
761 673
766 673
764 669
769 669
771 673
754 658
768 658
771 662
767 664
751 654
744 646
769 647
772 647
756 628
745 616
729 598
735 604
719 599
693 596
686 593
673 589
677 579
669 576
652 574
628 570
596 559
609 559
608 548
597 537
551 521
526 514
556 517
547 510
515 502
493 503
505 505
535 520
551 530
573 545
593 565
611 577
661 601
700 627
735 650
759 670
758 672
770 692
773 718
772 735
769 736
763 739
771 753
773 765
774 742
772 736
767 734
768 741
768 741
769 736
771 731
766 725
768 711
773 708
771 702
766 698
747 683
757 671
771 673
771 662
750 639
744 628
760 635
751 631
731 623
708 609
698 600
709 599
693 576
675 567
648 550
615 543
618 537
618 534
610 533
587 519
562 497
563 493
563 498
539 494
512 484
496 473
497 463
492 461
471 447
450 438
442 438
450 443
469 457
482 475
509 498
534 511
583 526
633 559
666 589
672 602
696 616
749 637
771 672
776 685
773 686
768 692
772 707
773 722
769 722
769 720
772 722
764 717
773 701
773 699
772 700
747 691
757 684
768 686
771 689
764 679
747 656
755 648
771 654
758 651
742 634
712 610
726 610
723 605
704 591
679 581
662 574
652 565
654 562
637 558
619 554
586 537
585 521
590 523
568 510
530 500
503 485
508 478
518 483
494 475
469 456
442 441
443 437
441 436
428 431
419 428
389 410
372 388
381 383
364 381
341 376
312 364
307 355
321 357
309 359
286 347
264 329
271 326
281 332
264 327
259 331
261 339
295 361
346 385
373 404
394 426
420 450
450 470
504 497
534 522
560 545
573 550
597 541
636 560
648 579
640 585
635 584
651 585
686 601
679 600
673 592
668 589
676 593
690 602
682 604
668 592
664 590
651 579
666 574
658 575
642 576
619 563
606 549
624 549
616 551
590 537
566 524
557 517
560 513
540 509
522 503
507 493
500 489
504 480
490 476
474 472
444 467
429 453
454 455
450 452
431 449
394 421
386 411
401 414
388 419
366 411
346 403
345 395
361 397
345 387
325 382
305 379
290 376
306 374
286 365
274 362
250 358
237 342
255 343
255 351
236 352
216 347
221 352
274 374
298 399
313 402
313 405
339 420
388 448
409 465
426 478
442 487
457 496
487 499
502 511
508 520
504 523
497 519
528 526
526 519
518 522
498 509
493 500
522 509
521 517
508 515
497 509
495 505
516 511
511 506
507 504
491 500
465 486
475 485
474 490
469 489
451 486
434 470
449 470
451 478
438 480
412 471
405 465
429 468
430 473
407 450
389 441
376 437
391 442
386 444
379 441
374 433
355 426
366 418
369 421
362 425
341 421
316 410
325 401
335 406
323 406
300 391
278 383
298 389
300 395
286 390
269 385
253 380
270 384
277 380
257 367
243 365
237 362
253 363
278 377
294 391
300 407
313 411
355 431
395 460
416 478
421 487
443 496
465 499
489 513
493 513
502 521
502 528
510 527
529 540
527 539
522 546
509 530
526 523
542 528
540 534
520 520
505 510
524 512
541 525
533 522
524 507
514 496
522 502
524 511
509 510
493 507
490 508
494 503
489 489
472 491
459 496
438 487
448 481
459 487
456 492
426 484
412 468
418 465
434 477
418 479
404 469
382 450
396 451
402 450
392 439
379 433
364 430
362 428
375 428
366 429
354 431
333 422
338 411
353 415
335 409
311 406
297 398
306 395
323 403
310 400
303 390
289 391
319 411
349 427
379 454
390 466
406 478
433 482
481 497
501 513
512 534
518 542
543 544
584 559
603 578
606 578
600 568
616 574
640 590
623 588
610 587
606 586
619 592
636 597
634 594
625 595
620 596
625 593
643 592
639 591
639 596
622 586
609 560
619 564
612 572
591 566
574 554
573 547
590 555
569 555
547 544
525 535
518 534
537 540
527 534
505 519
500 515
482 498
493 493
483 496
463 497
437 486
430 475
454 475
447 480
425 473
410 455
410 444
414 438
400 432
384 425
360 419
357 417
364 416
353 412
336 411
314 408
301 400
325 400
319 402
303 401
266 380
257 366
273 373
270 381
255 375
239 366
235 364
269 379
279 390
286 398
296 413
318 425
357 431
379 448
400 461
411 469
419 462
456 472
472 485
470 498
453 495
451 495
491 504
494 518
480 509
459 491
457 486
479 497
473 499
466 499
461 494
452 494
473 488
472 490
463 491
443 491
425 483
455 488
450 481
436 482
412 466
405 457
433 466
425 470
405 463
384 457
391 453
406 456
398 448
389 446
372 441
347 427
368 427
365 433
360 430
330 429
317 413
338 413
341 419
328 420
301 411
290 407
323 410
321 413
289 394
271 387
267 381
291 390
284 388
280 392
278 396
282 404
328 411
356 433
375 453
385 467
380 462
430 477
463 494
468 507
464 502
464 502
502 515
517 531
509 532
501 530
501 527
532 535
533 531
513 524
498 524
488 524
510 521
518 529
516 530
503 529
486 512
510 512
518 519
499 526
476 517
461 509
476 501
483 510
469 498
454 489
440 484
455 486
456 486
444 484
436 478
434 472
436 459
442 466
433 468
400 456
388 447
405 446
420 449
408 447
387 434
376 428
382 430
384 439
365 438
349 435
345 433
351 426
346 413
333 408
309 410
293 406
315 406
331 411
319 412
291 400
295 392
290 381
305 395
290 395
277 389
277 386
314 396
348 413
369 428
385 438
412 463
451 483
479 494
497 512
510 531
520 541
557 541
581 545
591 565
588 572
584 573
611 579
642 595
636 599
627 588
625 585
646 590
656 599
656 599
650 599
641 591
645 588
663 582
658 582
642 586
625 583
632 576
648 580
644 588
620 581
603 563
607 563
624 573
599 563
581 553
573 547
582 547
586 546
576 536
556 531
539 533
537 529
547 530
540 530
538 531
516 518
503 492
522 495
512 497
482 496
460 487
470 482
485 489
467 485
450 470
436 461
435 461
442 462
429 460
400 448
389 445
378 435
399 429
391 428
371 430
348 426
355 429
366 423
361 426
345 423
329 405
319 399
327 400
305 394
286 380
267 368
275 368
298 370
303 371
304 388
329 421
360 451
425 485
460 516
482 536
498 553
529 563
582 591
627 633
687 691
773 775
773 774
771 773
774 774
587 505