758 754
760 757
763 763
763 762
761 757
762 759
764 762
763 762
758 755
760 757
763 762
758 762
761 757
762 759
764 762
762 760
758 755
765 758
762 763
760 762
761 757
764 759
762 762
762 760
758 755
765 757
755 763
754 762
761 757
765 758
757 761
753 755
758 755
763 758
756 762
749 761
760 757
754 759
754 759
755 754
757 755
750 758
744 763
748 762
760 758
749 758
745 753
747 749
758 756
753 758
740 761
737 759
755 757
743 758
745 751
742 745
757 756
735 757
732 757
735 756
748 758
729 758
729 743
731 742
750 756
718 757
713 755
725 754
752 758
743 759
742 748
740 745
757 756
740 758
736 759
734 755
746 758
732 758
734 744
738 743
752 756
718 757
710 751
711 751
727 758
706 758
696 739
694 738
712 756
685 758
671 749
661 747
672 757
656 755
653 737
646 735
652 756
621 757
615 742
616 744
624 755
601 746
596 728
596 728
613 754
581 748
567 721
565 717
580 726
566 717
560 689
551 680
564 701
539 696
536 672
534 662
539 665
523 656
524 634
527 630
540 647
505 638
498 614
502 610
519 619
502 605
488 573
507 570
504 592
482 575
475 562
480 553
478 560
468 539
471 533
496 534
496 560
480 551
491 564
521 576
533 594
521 578
524 578
550 583
553 609
528 588
518 581
528 577
531 587
519 566
518 556
530 548
521 568
498 547
497 547
515 544
511 549
494 529
497 525
521 527
520 548
489 522
480 520
497 518
499 528
489 507
487 499
503 498
500 520
477 499
475 496
483 488
477 494
465 475
468 471
489 471
480 487
450 465
448 465
467 465
471 475
454 450
447 443
467 444
466 467
443 447
436 442
445 440
449 450
440 434
444 431
460 428
450 447
426 428
426 429
443 428
441 432
422 410
424 409
453 419
464 453
450 444
455 456
483 469
497 491
494 481
497 479
512 481
510 507
489 491
492 493
508 491
503 498
490 481
492 478
515 482
505 495
471 469
467 470
489 472
494 485
482 465
476 457
494 462
493 484
472 467
470 464
478 458
476 467
466 449
468 447
488 448
479 465
452 448
454 449
475 450
475 457
459 434
457 433
484 463
483 465
459 443
451 437
462 447
466 444
457 428
458 422
471 440
463 443
442 426
444 428
461 440
457 431
441 414
443 413
465 438
464 441
435 418
431 418
449 432
455 433
451 420
455 422
481 457
491 474
482 469
493 479
512 495
512 496
505 484
510 485
533 510
510 508
494 486
494 486
514 499
502 495
499 471
492 466
512 489
492 495
491 477
489 475
498 485
483 480
489 465
495 466
513 488
484 489
480 471
483 472
502 485
486 477
481 455
480 453
500 477
478 479
470 455
463 451
480 464
472 463
476 446
475 441
486 461
462 463
461 446
465 447
480 457
462 449
461 433
465 433
487 459
463 458
452 435
452 436
472 450
463 448
464 428
459 423
476 448
456 453
460 440
467 445
486 463
482 472
496 468
511 481
538 514
514 520
512 508
521 513
543 531
532 527
527 505
525 504
545 528
523 531
516 508
513 503
525 515
522 518
527 503
530 502
542 520
514 523
513 505
518 507
535 519
516 508
511 490
514 489
535 515
511 515
501 490
498 488
515 500
506 497
507 478
502 472
513 494
484 490
482 472
488 473
498 480
481 475
483 459
488 461
508 484
479 480
470 460
473 460
491 473
481 469
477 447
473 444
492 470
475 476
482 467
490 474
508 494
505 500
517 495
548 504
546 530
518 519
518 518
537 521
544 535
529 514
523 506
542 506
542 531
520 514
515 511
523 508
527 522
519 507
525 505
544 504
537 526
512 509
512 511
532 513
531 521
512 498
509 494
532 495
532 519
507 498
495 494
509 494
515 507
505 490
505 483
518 478
513 501
490 482
490 484
506 482
501 488
487 471
490 469
514 472
511 494
480 471
475 472
494 473
500 486
487 465
486 461
510 471
526 512
515 507
522 518
540 524
545 543
540 533
547 536
572 540
564 561
534 542
533 543
553 544
555 553
535 529
530 524
552 526
553 552
531 533
524 530
536 531
542 545
533 530
535 526
550 524
542 546
518 527
519 528
536 527
533 533
514 513
515 509
539 513
537 534
507 511
499 509
516 509
521 521
507 500
500 489
515 491
515 517
495 500
496 502
508 497
503 505
491 488
494 486
517 490
510 507
480 486
480 488
505 494
518 515
512 504
517 510
547 528
555 563
539 554
542 559
555 561
565 580
558 565
561 564
579 586
567 583
540 563
540 563
559 576
559 570
540 547
539 546
563 571
563 578
538 556
530 553
545 566
549 566
539 548
537 541
549 559
541 562
519 542
521 543
536 552
529 544
514 525
516 523
538 546
533 546
503 523
499 523
519 537
523 535
511 515
505 507
521 530
505 534
499 516
500 515
510 522
494 519
498 501
502 501
522 523
492 520
483 501
485 501
505 516
494 512
490 490
490 491
518 524
508 540
516 533
522 542
544 565
543 574
554 565
560 569
578 593
549 597
546 579
545 577
562 588
543 579
539 559
540 558
562 584
540 586
532 563
528 563
546 578
538 578
541 559
537 553
550 574
525 577
523 558
524 556
535 562
516 555
516 536
519 535
539 558
509 554
497 531
497 530
516 543
504 538
501 514
496 510
514 535
496 541
493 521
491 516
499 523
486 518
488 501
491 499
506 519
475 516
469 496
473 497
492 509
478 501
472 479
471 478
491 502
470 504
464 482
454 473
465 482
456 479
461 464
462 460
473 479
447 480
446 463
451 464
466 474
448 465
448 450
456 456
486 491
474 504
478 497
491 513
524 543
527 555
537 548
539 552
558 584
539 591
547 582
552 584
562 592
546 587
548 572
554 573
572 597
540 591
531 571
536 572
555 586
545 580
536 555
551 553
548 579
530 570
528 564
538 559
535 568
522 549
524 545
544 543
536 561
506 539
501 538
518 537
521 548
503 523
497 517
517 516
518 542
495 522
486 515
496 512
499 522
494 510
496 505
512 499
502 519
475 498
473 499
490 498
488 503
469 480
468 475
489 475
488 498
460 473
450 470
464 468
468 480
457 462
454 453
467 450
463 474
440 456
440 457
454 453
449 459
436 442
439 440
462 442
459 463
433 445
437 455
469 470
489 498
492 495
500 505
531 523
543 561
531 554
534 560
548 562
551 578
543 564
548 564
569 566
560 586
532 567
532 568
551 569
553 578
533 554
531 551
554 555
555 580
531 560
522 556
535 556
539 568
529 549
529 542
541 538
532 559
507 538
507 538
519 532
510 532
494 512
496 509
519 513
515 533
484 508
476 505
492 505
496 516
484 495
479 486
493 488
491 510
470 492
471 491
482 485
477 492
465 474
466 470
485 472
474 485
442 462
442 462
466 468
472 479
456 456
451 451
471 476
471 479
451 460
445 455
454 465
455 463
447 445
449 442
464 460
454 461
432 443
434 445
454 459
455 454
445 441
456 451
492 492
507 513
496 509
503 522
531 550
545 561
543 552
546 552
562 576
557 582
538 566
542 570
559 581
554 576
543 560
547 561
572 588
553 589
536 566
534 567
553 581
543 578
542 556
535 549
551 572
529 575
527 556
526 552
534 558
518 554
520 535
522 533
540 553
508 549
499 528
500 527
520 540
506 533
501 509
497 506
517 529
494 530
485 504
471 493
480 500
469 497
473 480
473 475
485 492
457 493
455 475
459 476
475 487
456 476
452 456
452 453
473 476
449 476
439 452
437 452
454 465
446 464
448 444
443 437
458 461
437 465
448 459
459 467
482 485
476 494
491 492
508 508
541 547
522 556
520 545
527 553
551 572
543 572
540 551
535 548
551 571
527 572
523 550
517 543
524 551
511 546
514 529
518 529
532 549
502 549
497 531
502 532
520 545
504 535
496 513
496 510
516 534
493 534
485 510
478 504
490 514
479 508
480 489
477 482
486 501
459 500
456 480
460 479
473 485
453 475
451 458
454 458
474 482
449 479
439 457
439 456
456 469
446 465
446 445
442 441
456 465
435 467
434 450
436 447
444 453
430 449
434 434
463 439
461 464
441 460
452 474
488 494
509 526
511 523
518 529
546 543
555 580
540 570
541 575
553 575
554 589
544 572
547 569
566 567
558 585
526 563
524 564
543 566
547 577
528 554
525 549
546 549
546 575
522 554
511 547
520 544
522 555
510 535
509 527
522 521
513 541
488 520
486 520
502 517
497 520
477 498
476 491
498 492
500 516
472 493
462 489
477 488
480 499
468 478
463 468
476 467
472 488
450 469
448 468
460 462
454 469
442 452
445 449
467 451
462 470
431 449
428 450
447 451
452 461
437 439
433 434
458 443
468 479
463 477
476 494
503 511
521 541
527 542
544 555
572 566
570 596
550 585
554 591
577 596
577 606
559 585
556 581
577 583
575 606
548 581
538 576
551 575
550 582
539 564
538 559
554 559
548 582
526 563
526 564
541 560
534 564
518 544
518 539
540 541
534 558
501 532
494 529
511 527
512 536
498 513
491 502
505 504
502 525
479 505
479 502
488 497
490 510
478 491
480 488
499 509
489 504
461 483
460 483
478 495
480 490
462 466
460 465
486 494
495 509
486 504
494 516
521 545
539 561
543 559
556 568
578 596
575 607
556 591
559 595
578 607
572 597
550 572
543 563
556 576
541 566
503 529
487 517
500 524
502 520
493 501
490 494
504 516
487 520
482 503
487 505
502 515
485 509
486 492
489 492
513 516
486 516
476 494
476 495
496 510
488 510
488 488
485 485
505 511
487 517
490 504
492 505
506 518
497 520
502 505
507 505
523 524
491 522
483 500
481 496
500 508
490 505
490 488
495 494
525 528
518 546
530 542
543 559
577 594
588 615
612 621
630 637
659 674
637 685
637 670
643 674
660 686
640 675
630 650
621 639
633 656
599 644
580 608
566 596
576 602
558 591
555 564
546 550
552 564
519 557
511 531
509 524
517 526
493 512
486 487
485 482
505 503
479 498
464 472
457 465
470 470
456 458
434 421
427 410
440 423
411 416
399 386
383 368
379 361
352 339
338 304
321 282
313 277
269 260
251 224
244 210
248 206
221 187
215 171
223 173
248 204
232 209
223 190
222 193
239 204
230 201
225 178
209 160
209 169
182 160
174 135
168 122
164 113
141 99
140 79
145 80
164 101
141 102
138 95
151 103
172 120
170 123
170 108
188 113
186 135
168 124
163 118
164 102
149 100
133 74
132 67
147 59
136 71
106 50
107 56
130 60
137 74
124 56
122 58
149 66
160 98
156 97
167 117
193 139
227 185
250 204
281 234
321 259
328 301
322 303
336 322
366 336
370 351
354 337
357 338
383 343
381 365
353 340
338 334
353 335
363 350
354 334
353 326
364 322
361 347
344 330
345 336
361 333
352 337
340 320
344 317
367 319
360 333
324 305
317 303
333 299
334 306
316 279
302 262
311 258
308 272
285 251
277 243
278 231
274 238
268 221
278 228
310 241
316 276
313 286
339 317
386 350
411 386
410 386
422 404
460 422
473 462
458 451
453 452
461 453
469 466
462 453
462 446
472 440
462 459
440 438
441 439
458 438
451 442
433 425
438 423
464 430
464 452
433 427
423 426
443 425
448 438
437 419
431 407
441 407
438 426
418 409
417 406
424 395
413 397
397 373
398 366
415 363
408 378
376 356
381 363
414 379
434 408
435 406
445 424
485 472
502 494
495 491
499 498
512 516
519 522
514 510
519 511
534 527
518 522
490 499
489 495
505 504
498 491
473 464
469 457
491 478
489 478
461 450
447 441
459 450
462 443
448 421
441 408
445 418
433 414
410 390
408 386
417 389
403 372
381 348
383 342
403 364
383 358
362 331
356 328
374 338
367 337
374 324
377 328
409 371
409 396
431 404
450 423
474 449
472 463
487 459
500 469
525 497
497 497
492 483
494 483
516 498
502 491
498 468
490 463
509 483
487 483
482 460
472 450
476 457
464 451
469 436
472 432
483 447
452 447
449 426
455 426
469 434
446 420
437 399
437 393
458 415
434 412
420 384
411 379
426 387
416 383
416 362
409 350
417 368
393 368
393 349
395 347
401 348
379 339
381 323
390 325
409 345
382 341
376 327
390 341
427 375
437 395
452 394
464 412
498 455
492 474
502 469
508 474
520 489
512 493
521 482
527 485
544 504
510 501
505 482
510 482
528 495
512 485
503 462
503 463
527 489
509 492
504 471
498 468
512 482
505 481
509 466
508 460
516 477
490 478
489 458
495 459
507 465
484 453
481 436
485 434
506 458
479 454
466 429
465 428
484 440
475 437
475 416
467 408
479 431
458 429
458 413
459 408
464 412
451 413
464 406
497 418
509 457
492 457
502 474
536 490
554 519
549 510
546 507
565 513
570 540
552 527
551 527
557 520
552 530
541 510
543 507
564 504
554 519
522 498
521 498
541 499
546 512
526 487
526 487
547 486
548 510
524 488
512 480
516 476
519 484
508 466
508 459
520 450
508 469
483 448
483 449
500 447
495 449
473 428
473 423
496 424
496 446
466 418
453 414
469 413
475 425
464 406
458 395
468 392
465 414
445 395
445 396
456 390
446 395
434 378
438 376
460 378
453 393
419 369
417 372
444 380
460 406
461 402
470 417
508 441
525 484
519 484
524 493
536 498
542 516
537 504
544 506
565 506
554 525
527 507
528 506
548 508
546 514
523 488
519 484
544 487
545 512
522 490
510 485
524 486
525 493
515 477
515 471
526 468
519 490
499 471
501 472
517 467
507 469
488 451
491 445
513 450
509 467
474 439
467 437
486 436
490 448
477 427
468 415
481 418
480 438
461 421
461 418
465 409
461 420
451 403
462 408
484 430
472 422
442 403
443 402
464 417
466 414
446 388
439 384
461 406
462 410
443 394
442 395
463 421
483 438
491 443
510 459
538 494
537 510
525 503
536 515
560 535
559 531
540 515
543 516
563 537
562 541
534 516
523 512
542 525
547 525
538 507
534 500
543 518
528 523
525 508
529 510
542 519
520 512
520 495
525 494
548 518
519 513
504 488
504 487
526 501
515 498
510 473
500 464
516 484
495 486
494 466
490 460
494 465
479 462
483 444
486 442
502 459
469 455
463 437
467 436
486 451
471 442
462 417
461 417
488 446
479 461
487 455
491 466
519 497
523 511
538 509
545 515
561 540
538 549
541 534
547 538
566 552
545 543
547 532
550 529
572 554
546 551
532 524
529 523
549 537
542 537
544 519
538 511
552 536
532 537
532 521
535 519
541 524
522 520
525 501
529 501
548 522
515 515
504 494
506 492
526 506
514 500
506 474
499 471
519 493
498 495
496 475
490 467
496 476
487 472
491 457
494 454
506 470
473 469
470 449
476 450
493 462
474 450
466 431
470 433
498 464
487 478
492 470
501 486
532 517
538 533
553 532
559 537
575 568
557 577
562 565
571 571
584 581
562 574
562 558
568 559
588 584
560 579
547 555
550 557
565 567
555 564
555 545
572 544
568 571
549 560
551 556
563 552
554 558
540 541
542 536
566 536
560 554
525 527
517 526
536 524
539 536
523 512
512 500
529 500
530 522
506 502
502 498
506 490
509 505
501 489
505 485
523 480
510 495
481 475
481 475
500 475
501 483
479 457
472 452
495 452
496 476
473 455
467 455
487 466
507 494
513 498
529 512
555 524
561 565
551 560
562 574
586 583
585 595
570 584
575 584
601 590
601 614
568 586
557 585
576 584
582 599
571 581
564 569
580 572
581 598
563 583
565 585
574 580
568 590
558 573
562 572
585 572
575 588
541 565
539 563
559 563
562 573
541 546
531 538
551 537
551 561
528 540
519 532
524 527
527 537
518 520
520 515
533 510
520 527
495 506
496 505
509 499
504 502
483 483
488 485
522 499
534 537
520 530
523 544
554 563
573 593
575 591
581 594
599 602
599 632
583 619
588 624
602 621
592 626
576 607
579 603
602 607
595 623
557 595
555 597
581 603
589 620
575 597
565 588
582 613
582 615
561 596
557 591
562 595
558 591
547 570
549 566
566 582
549 575
520 553
520 548
539 561
537 553
512 525
505 519
527 539
525 542
499 517
488 507
496 517
499 513
489 495
487 488
497 501
485 500
464 478
465 478
481 486
470 473
450 453
454 451
483 483
478 496
475 487
485 507
522 541
530 562
547 562
552 567
576 603
562 616
567 606
573 611
585 621
566 619
568 601
571 600
592 622
559 616
545 594
547 593
568 609
558 606
554 582
546 579
566 603
547 607
545 586
533 573
537 580
526 577
530 560
532 556
543 570
508 566
502 543
505 541
523 551
503 538
492 513
490 508
511 531
489 531
480 504
470 496
483 507
474 503
476 485
472 477
479 492
453 493
454 474
458 474
467 478
444 467
444 450
448 448
468 471
441 466
428 441
431 446
461 470
467 484
484 484
494 499
528 547
525 570
541 572
554 584
568 602
560 609
569 598
578 604
598 629
563 623
552 601
557 600
578 616
567 611
556 582
551 582
573 606
553 610
551 589
544 582
554 594
544 589
547 572
547 567
555 581
523 578
520 555
524 553
537 561
512 544
504 523
505 518
524 541
499 536
484 506
477 502
493 510
482 506
482 484
475 474
484 494
461 491
461 473
464 470
464 468
444 461
446 444
473 447
469 467
439 447
428 440
445 438
450 450
442 434
444 431
468 444
486 488
485 495
504 518
531 532
541 562
544 563
561 577
594 590
593 617
564 600
563 604
584 607
588 619
568 594
556 583
575 581
576 605
555 586
547 581
553 577
557 591
549 575
553 572
570 568
556 585
528 563
528 563
552 568
549 572
523 544
519 536
541 533
539 555
510 527
493 518
503 515
507 524
496 505
493 494
501 486
493 507
472 486
473 487
486 480
475 482
457 463
459 456
482 458
480 478
453 458
458 471
493 488
516 523
521 524
530 535
562 558
577 599
567 597
574 606
587 608
588 625
580 610
583 609
602 608
588 621
554 598
553 594
572 595
573 603
551 577
545 573
569 575
570 601
547 578
536 571
544 569
546 578
530 555
528 547
539 539
527 558
504 536
504 534
520 531
511 531
487 508
487 500
510 503
506 521
473 492
462 487
477 484
482 495
471 475
463 462
471 461
467 480
447 460
446 458
454 447
444 452
436 438
447 443
478 477
484 487
469 485
487 509
528 547
550 568
548 564
551 573
581 609
589 623
573 612
573 612
578 621
578 620
566 601
566 596
581 611
564 606
536 584
539 584
559 598
556 591
534 567
532 564
556 587
554 591
527 564
514 555
525 565
528 560
516 539
511 528
517 541
492 540
482 516
484 514
496 519
471 505
465 484
466 479
486 500
459 495
444 466
437 462
454 472
443 468
441 444
430 431
442 453
420 451
418 432
416 426
420 429
400 423
401 402
400 395
418 415
387 408
377 387
379 386
398 399
385 392
378 366
371 362
390 383
371 385
370 365
367 362
384 383
391 400
419 412
447 439
486 488
480 519
497 526
520 550
554 583
549 589
553 584
560 589
587 621
566 625
556 599
546 594
562 606
551 602
553 582
547 573
557 595
535 596
537 580
542 582
554 590
533 584
533 567
538 567
559 591
529 585
513 558
512 555
530 567
517 560
511 533
499 523
514 544
492 543
490 522
486 513
488 517
473 511
476 491
479 490
493 506
458 499
451 478
456 476
474 487
457 476
446 450
444 449
464 471
442 471
435 446
426 438
436 447
427 443
432 428
437 429
456 459
446 480
468 487
497 516
533 551
530 562
542 568
562 585
594 626
576 633
564 611
561 612
580 626
572 625
569 602
580 591
569 613
544 596
545 591
562 589
555 594
536 577
540 574
565 576
566 600
533 572
522 569
538 566
543 578
529 555
518 538
529 534
526 554
503 533
499 528
504 517
495 523
482 501
484 496
505 492
493 506
458 482
453 478
472 478
476 487
460 464
451 457
470 453
470 475
447 454
437 446
441 441
443 450
434 433
435 427
449 419
435 436
412 416
412 415
431 415
431 424
418 414
435 430
483 459
509 513
506 518
517 543
553 569
578 605
582 606
589 611
608 618
609 649
592 635
593 638
604 632
593 635
575 614
576 607
599 608
592 624
556 598
552 599
573 599
579 613
563 590
553 578
570 581
569 602
546 581
539 574
542 563
537 570
525 548
525 542
542 536
525 547
493 525
492 520
510 519
509 523
479 490
470 482
491 481
493 506
469 482
457 472
466 470
470 479
459 461
458 453
467 447
457 466
436 445
437 445
452 442
444 443
425 425
427 420
450 425
447 442
413 414
404 413
423 411
433 427
423 409
419 400
439 431
447 443
449 452
477 483
512 521
530 548
543 558
567 582
607 626
609 640
586 629
592 637
618 659
622 659
603 632
591 625
609 645
607 648
585 626
579 619
585 627
588 627
581 612
586 611
602 630
589 628
564 607
565 605
584 617
577 606
557 584
555 578
576 597
557 596
539 565
524 555
536 563
524 557
525 536
519 524
526 538
497 537
496 515
497 513
508 518
483 505
480 486
482 482
503 504
476 500
460 472
456 470
474 479
463 476
460 451
443 434
453 453
432 453
432 435
432 430
439 437
433 445
454 447
481 473
525 524
518 548
534 558
560 585
599 624
602 637
603 624
607 634
635 666
617 675
614 653
602 643
610 653
597 646
604 633
605 627
613 641
581 640
579 619
585 622
602 633
581 620
573 600
574 595
595 620
570 615
553 585
543 577
557 585
544 578
542 553
531 539
537 556
510 551
507 529
508 524
513 525
488 514
487 492
490 490
508 511
476 502
460 477
461 473
478 484
467 477
459 450
448 443
464 464
443 463
441 442
437 434
440 439
426 434
429 416
431 414
442 428
407 421
401 400
407 400
428 416
423 418
431 416
457 444
507 502
515 538
535 547
551 571
585 608
592 624
608 624
616 631
630 658
605 663
607 647
613 649
621 653
591 634
586 614
613 614
612 640
586 623
572 611
584 612
591 626
582 610
582 601
592 592
583 614
559 591
556 589
569 581
557 580
534 558
534 547
554 545
546 560
510 528
498 524
515 520
523 535
507 510
495 493
506 490
504 509
482 489
478 485
482 474
475 481
464 461
467 459
488 456
476 469
444 448
442 447
461 447
462 455
440 428
431 421
451 420
453 444
434 426
433 429
455 444
483 480
501 495
531 523
572 549
585 599
582 604
594 621
625 637
632 656
618 645
621 645
648 651
647 675
614 646
597 637
610 633
614 644
602 623
597 613
608 610
604 633
585 615
585 616
596 610
585 613
568 592
569 585
590 584
579 597
540 566
531 561
548 555
548 563
528 534
514 518
527 515
526 534
501 512
496 506
498 495
494 502
483 481
485 477
501 473
485 484
456 463
457 461
475 460
473 464
449 436
442 430
462 430
460 451
434 426
422 418
437 422
452 443
464 450
494 479
535 508
555 561
559 572
586 602
623 624
629 646
622 642
634 650
666 686
665 690
632 663
621 661
638 670
638 667
623 641
612 627
624 647
621 649
600 630
600 629
608 634
600 628
588 607
590 603
609 621
593 613
556 585
552 579
569 589
566 580
542 548
529 537
545 554
540 553
516 528
506 516
508 520
505 513
494 492
494 486
505 498
475 492
463 469
463 466
479 476
459 464
448 438
445 432
465 454
442 453
431 426
417 418
429 426
418 421
420 402
419 396
437 422
428 442
453 451
486 485
530 528
535 551
554 560
581 586
624 635
616 655
613 643
616 651
636 669
626 668
625 647
618 637
629 656
600 653
594 630
593 625
604 631
584 624
584 605
587 603
608 626
577 621
566 597
563 594
577 602
561 593
553 564
544 555
557 573
530 569
522 542
515 532
521 537
503 528
501 506
501 500
513 516
481 512
474 489
476 486
490 493
473 483
467 461
468 460
489 483
465 481
457 455
451 449
461 456
447 449
446 428
442 420
450 436
423 434
423 418
435 427
465 454
472 473
498 487
528 518
576 575
575 602
587 604
602 623
631 652
629 659
634 645
632 645
645 669
617 665
611 641
607 632
612 636
592 626
590 605
592 603
610 625
580 620
572 599
573 597
589 607
573 598
565 571
558 565
571 583
544 577
536 550
522 534
526 539
509 528
508 507
528 500
515 514
481 495
474 484
489 480
489 487
469 460
461 451
477 447
475 467
450 444
440 438
448 433
447 442
435 423
435 416
450 410
439 427
413 405
410 406
431 407
427 411
407 388
403 381
426 382
434 412
425 407
441 434
487 468
525 518
545 536
572 561
611 589
628 637
620 638
631 652
653 659
654 675
640 659
641 654
661 654
652 670
616 643
607 638
620 634
622 643
605 619
599 610
616 610
614 632
589 611
582 604
588 596
584 602
567 578
564 567
578 560
563 572
529 545
522 538
536 531
531 533
508 505
500 495
516 491
512 510
485 484
473 476
482 472
481 478
468 457
466 448
477 442
467 460
442 438
440 436
453 431
448 434
429 414
427 407
446 406
442 423
408 395
396 388
412 388
421 404
423 398
440 413
483 446
512 503
521 520
548 552
586 577
605 611
608 614
623 626
655 642
654 669
626 650
623 650
639 648
637 654
615 626
606 617
620 615
617 638
594 616
593 614
607 614
606 624
593 604
594 598
608 615
595 609
565 584
560 578
574 585
565 572
541 544
534 533
550 549
536 541
505 512
494 504
505 511
504 504
491 482
486 471
497 487
487 486
462 463
461 460
472 465
464 454
446 431
443 424
461 444
454 441
430 423
439 435
476 470
505 494
520 505
542 529
584 582
591 612
604 617
623 638
646 660
637 666
641 653
644 653
661 672
627 665
612 638
606 631
621 639
605 630
598 604
593 600
613 623
591 625
586 602
578 596
588 605
569 594
564 569
562 560
573 576
540 572
530 546
529 542
540 547
518 533
509 508
505 501
521 520
492 514
484 490
477 483
487 489
478 486
478 465
473 457
484 475
457 473
449 448
451 447
459 450
435 438
437 423
445 427
479 462
474 482
491 489
516 519
567 568
583 595
601 597
620 620
654 664
642 680
646 669
649 672
658 681
643 677
639 653
634 644
647 661
613 655
602 629
601 624
619 637
602 626
598 605
594 602
612 624
586 622
577 595
568 587
576 592
559 582
556 558
550 546
557 560
525 554
516 528
515 522
525 525
501 510
494 487
493 481
509 501
479 494
467 469
464 466
482 477
469 470
467 447
459 439
471 459
446 457
442 436
442 431
449 435
430 427
428 407
429 404
444 423
418 421
419 412
440 431
484 472
504 499
527 509
574 540
599 597
601 614
619 631
646 645
657 670
650 664
657 665
680 667
672 685
636 660
626 654
640 649
641 657
621 630
614 623
634 622
634 647
609 626
598 617
607 614
605 621
595 605
593 594
604 583
591 598
557 570
550 563
561 556
553 555
530 528
522 517
539 512
534 529
502 501
489 494
498 490
499 497
486 475
481 464
492 458
484 478
458 455
455 452
466 444
458 447
439 425
437 418
457 415
450 433
425 415
432 429
471 451
503 493
520 505
545 531
590 565
615 619
614 625
628 642
652 654
659 675
652 664
656 663
675 661
662 677
627 651
620 644
634 640
631 644
610 618
605 612
624 613
623 636
597 613
588 606
596 602
594 609
579 586
575 575
585 566
571 582
540 554
535 548
542 537
530 534
508 510
505 502
525 502
519 519
487 491
478 486
491 482
492 489
479 467
472 456
484 455
478 474
454 453
452 449
462 441
454 446
439 426
439 421
458 421
448 435
416 411
411 408
426 406
432 417
414 392
406 382
421 403
423 407
414 402
432 421
471 462
503 494
525 512
557 542
602 592
614 618
605 619
620 636
650 662
655 664
640 646
638 644
657 666
651 666
620 637
608 629
619 637
618 632
606 611
604 603
617 622
608 623
583 600
582 597
595 603
584 591
564 567
560 558
577 576
551 569
530 539
521 532
533 538
517 530
513 503
503 491
515 509
488 505
483 483
478 476
486 481
468 474
467 452
467 447
482 464
450 459
440 437
439 433
454 443
432 428
424 402
422 400
440 422
418 424
420 409
426 416
456 446
467 467
495 477
522 502
560 548
552 572
564 572
582 589
611 614
602 616
602 602
603 603
623 626
597 625
585 596
578 590
591 599
577 594
578 574
575 567
589 589
561 589
557 567
557 564
567 568
544 557
538 534
536 527
550 544
519 536
505 509
503 506
517 514
500 504
495 476
485 466
496 483
469 479
464 456
460 448
466 451
448 443
447 423
447 419
462 436
430 431
420 409
420 405
434 413
418 403
411 379
408 377
431 404
421 417
434 415
453 435
490 473
501 494
525 501
544 520
573 558
557 573
564 567
576 577
597 594
581 588
577 570
578 569
595 591
568 588
557 562
554 559
569 570
558 565
558 545
554 540
566 562
533 554
530 534
532 529
540 528
518 523
515 500
536 496
526 510
487 486
477 478
494 474
497 483
480 458
468 443
479 440
480 461
458 442
451 436
455 425
449 433
437 414
439 409
457 404
444 416
412 394
409 393
427 393
427 399
404 371
396 364
417 362
417 384
393 362
380 354
383 349
388 358
380 341
386 339
398 331
385 349
362 329
361 331
378 329
371 329
350 309
350 303
373 305
372 326
347 305
346 315
380 333
411 372
427 384
448 405
485 432
505 480
504 484
519 503
541 512
542 530
538 523
548 528
576 536
570 556
534 533
531 533
552 535
557 548
540 524
531 516
552 520
555 546
536 530
531 528
537 523
538 534
529 517
532 514
549 509
533 524
503 503
503 501
521 500
518 504
493 476
488 470
509 470
502 486
474 462
461 454
474 454
479 464
470 447
467 438
475 432
465 453
444 432
444 433
459 428
448 429
430 411
431 405
454 410
450 426
416 400
408 398
425 396
427 405
414 385
405 372
422 377
422 398
405 383
410 388
430 394
441 420
453 425
479 449
521 495
527 509
510 507
522 520
553 547
563 553
548 534
543 534
566 559
565 564
542 543
532 535
538 543
539 540
531 524
535 521
549 539
537 540
514 521
519 523
538 536
533 526
509 502
507 496
528 519
524 519
494 490
479 482
493 491
494 487
483 467
475 454
481 468
460 467
452 447
452 445
462 449
437 437
434 419
437 415
458 437
430 432
414 405
410 404
428 414
418 411
415 386
403 375
417 397
396 397
395 379
392 374
396 377
381 373
381 352
382 348
396 365
364 359
356 342
360 340
381 355
373 354
377 342
390 359
433 406
436 437
457 443
471 461
498 494
504 510
521 509
532 517
549 542
525 551
527 537
535 543
553 556
528 542
522 524
525 522
553 554
532 555
519 529
513 528
532 541
524 540
526 521
519 512
528 532
503 532
501 511
502 508
508 509
484 498
482 477
484 473
501 493
468 484
452 458
451 453
468 463
454 455
446 428
434 421
450 442
429 443
426 423
421 414
423 418
410 414
413 396
415 393
426 408
392 403
386 383
391 382
408 392
390 380
380 356
378 354
398 376
378 376
371 353
362 346
374 356
366 352
362 331
359 324
366 339
343 343
347 328
359 337
384 358
381 367
401 377
430 406
476 459
474 483
481 482
496 501
528 530
528 540
536 530
555 531
549 561
530 551
531 548
547 545
538 548
520 531
523 526
548 530
549 553
517 528
509 531
530 532
536 547
524 529
517 517
534 519
535 543
511 522
506 518
513 509
504 514
488 492
488 486
509 483
498 496
463 471
457 468
472 465
473 473
454 447
446 437
461 435
458 455
434 434
427 429
433 423
432 431
419 411
420 405
437 401
426 417
398 396
394 394
410 391
409 396
390 373
390 373
419 383
435 423
432 425
448 449
485 477
510 514
519 520
535 533
564 547
568 583
551 573
558 581
577 585
575 594
557 576
556 571
578 571
574 591
543 565
534 564
551 563
555 576
544 557
540 549
556 551
552 573
529 553
525 550
534 542
529 548
511 525
504 512
521 509
511 524
480 499
474 495
489 491
489 497
469 471
460 461
475 460
471 478
446 455
439 448
446 443
444 450
432 431
432 426
447 422
437 438
410 416
408 414
424 411
418 412
399 389
400 386
425 394
431 423
419 415
432 434
469 461
498 501
511 510
530 528
562 570
569 589
557 583
567 595
589 612
587 611
573 595
574 592
595 614
588 612
555 586
550 584
566 595
569 593
555 572
550 565
568 588
564 591
542 570
538 566
546 572
540 566
526 544
525 537
541 552
527 546
496 521
492 515
507 524
504 515
483 487
476 479
492 498
474 497
468 472
450 462
460 471
450 466
453 448
450 439
458 454
431 456
431 435
433 436
446 442
423 429
418 411
421 407
445 433
426 437
426 427
442 447
484 487
500 514
521 518
541 540
577 587
568 609
579 607
592 620
612 638
600 641
601 625
603 624
623 647
592 642
579 617
576 614
592 625
579 620
576 597
572 593
589 616
566 617
562 596
557 588
564 595
546 588
550 569
549 562
561 576
526 568
509 538
505 531
519 538
500 527
493 501
487 494
504 513
478 509
470 483
463 476
473 484
460 477
459 457
456 44