743 720
489 499
230 267
39 87
18 19
17 16
7 5
7 7
23 26
21 22
7 7
8 7
18 19
16 16
7 4
7 6
22 26
8 23
7 7
7 7
17 19
4 16
7 5
7 7
22 26
3 22
7 7
7 7
17 19
4 16
7 5
7 7
22 26
3 22
7 7
7 7
17 18
5 18
7 17
13 37
40 83
28 102
34 103
45 122
60 143
57 152
69 152
75 159
99 191
86 198
96 189
103 195
118 211
114 218
127 214
143 226
173 259
163 270
174 264
183 271
203 289
195 290
197 276
197 276
213 295
192 293
189 270
184 263
192 270
180 266
179 247
173 238
177 244
146 234
139 205
128 192
122 183
88 157
69 124
58 109
66 119
44 114
38 89
36 85
49 95
37 90
37 74
33 68
45 84
28 83
27 65
23 60
24 59
8 48
7 27
7 16
22 27
7 23
7 7
7 7
17 16
7 15
7 5
15 16
77 84
131 157
211 221
294 302
375 384
421 444
468 477
502 513
540 557
529 570
537 564
548 575
570 598
558 597
559 585
565 592
594 624
583 633
592 622
600 630
621 653
617 658
625 650
652 653
647 675
621 660
616 649
623 642
613 644
580 611
557 588
549 561
510 544
449 484
419 453
414 435
412 442
404 428
414 434
438 436
439 460
421 443
422 443
433 440
425 443
403 419
394 407
405 397
392 406
357 371
340 356
338 341
323 336
296 304
278 283
279 267
265 274
237 244
230 237
233 226
221 226
203 205
199 198
215 195
207 207
181 180
174 175
183 170
193 191
217 213
276 269
371 345
448 441
503 495
559 551
609 591
634 633
641 639
656 653
684 664
685 690
664 676
669 681
687 686
685 698
664 676
658 670
678 672
679 695
659 675
658 675
670 676
671 689
656 671
652 664
662 656
650 671
619 643
613 636
618 626
602 623
574 594
562 578
571 569
558 578
523 543
510 532
513 522
503 523
480 495
465 478
468 467
451 473
418 440
407 428
407 416
393 415
370 390
360 376
366 366
348 368
310 329
290 310
283 287
260 273
223 232
200 205
201 192
192 198
173 178
175 178
188 178
191 189
182 176
183 172
202 196
220 215
251 250
322 319
416 410
496 486
550 537
603 590
666 657
695 693
693 695
701 706
716 726
716 729
702 713
701 711
717 730
709 731
685 709
685 709
702 723
701 723
687 706
689 706
711 730
706 731
673 699
663 691
669 698
655 684
625 652
604 630
601 632
564 615
537 575
518 555
512 547
480 527
466 497
455 483
464 494
431 483
420 452
410 442
415 444
392 431
380 403
367 389
376 402
349 394
337 362
321 344
311 335
277 310
258 272
238 248
233 245
190 220
174 184
161 168
162 165
137 149
127 122
124 118
167 163
208 224
290 286
374 369
470 464
533 538
592 582
640 628
692 687
693 716
708 715
720 729
741 751
735 752
733 733
727 729
743 751
717 750
713 727
709 724
718 737
705 737
710 724
717 727
737 750
705 745
694 718
686 709
689 712
655 690
629 652
608 631
608 635
569 617
544 573
518 548
512 544
486 527
477 500
467 487
472 496
440 486
434 459
428 450
429 450
400 432
386 405
382 398
415 432
434 466
487 498
548 557
629 632
679 689
731 720
748 739
757 755
747 757
746 748
748 748
759 757
742 755
739 736
740 735
757 755
736 756
728 736
729 736
748 752
736 751
737 733
736 731
751 754
726 754
720 730
707 719
697 716
661 695
641 661
643 641
617 642
569 606
548 580
542 561
526 554
492 517
470 494
473 479
460 487
429 455
417 443
414 428
400 428
379 402
371 390
379 378
361 384
328 352
317 340
320 328
305 324
272 289
253 268
258 254
243 258
211 223
192 207
188 190
175 186
157 160
147 147
152 134
138 140
115 114
110 109
118 102
104 99
81 73
79 69
125 95
187 176
261 248
367 354
493 462
598 574
669 639
732 698
755 738
757 755
746 749
747 748
758 748
759 757
741 741
740 736
755 738
757 755
738 742
736 741
754 744
758 757
744 741
741 736
756 737
757 755
738 742
738 739
740 732
724 734
695 706
682 688
670 664
650 667
611 629
595 612
588 593
567 585
534 551
521 535
530 526
522 538
486 504
475 494
480 484
472 487
449 460
435 443
442 435
425 439
394 409
382 396
378 380
361 376
334 345
320 328
322 313
303 315
272 284
260 272
262 259
250 257
224 228
210 212
215 201
203 205
176 177
168 169
196 186
254 251
332 320
437 413
563 534
653 625
711 682
750 743
759 756
760 757
751 746
747 741
757 753
758 756
749 749
748 747
759 756
758 757
744 740
745 737
756 753
758 755
747 747
747 747
759 756
760 757
745 740
739 733
756 753
755 755
729 726
712 710
701 701
682 685
656 653
642 635
644 640
611 627
594 597
590 589
598 593
573 580
561 554
554 545
570 562
541 555
526 523
509 509
510 509
486 495
473 464
452 443
448 445
408 427
397 395
383 381
375 377
351 361
344 335
336 323
341 331
308 320
299 293
288 280
288 279
266 266
279 263
332 311
434 407
515 500
613 572
703 654
759 742
759 758
757 749
755 745
757 754
757 756
752 751
752 751
759 756
751 757
746 740
744 736
757 755
750 756
746 744
747 745
759 757
747 757
746 739
745 735
756 755
743 756
739 738
739 734
744 735
717 718
701 684
686 665
688 671
644 651
624 613
609 597
608 594
578 575
560 540
543 525
547 533
512 519
500 486
485 472
477 467
453 454
442 427
431 415
435 423
399 410
384 378
371 363
366 358
334 336
315 304
299 289
303 294
270 282
263 255
252 243
249 241
227 229
220 207
215 199
219 206
189 195
197 189
246 233
346 322
443 416
554 502
658 598
757 708
759 757
760 757
760 755
760 757
752 758
750 744
754 743
757 755
752 755
748 748
758 747
759 757
749 743
746 738
754 738
757 755
752 751
751 748
757 746
759 757
743 740
742 734
754 731
754 745
720 713
709 697
709 679
688 670
649 632
628 609
635 595
623 603
586 568
568 554
570 544
568 549
541 522
521 502
531 494
521 508
490 480
477 468
474 454
461 453
428 420
415 404
422 392
404 396
364 360
346 345
346 331
332 328
302 295
281 274
282 259
267 265
238 233
225 223
221 209
206 206
187 181
179 170
189 161
182 177
193 187
265 255
387 350
511 469
612 557
708 646
756 730
758 756
762 759
757 756
759 754
760 757
751 747
751 743
756 743
758 755
749 749
747 747
759 748
760 757
749 743
747 739
757 742
758 755
752 750
748 747
759 745
758 756
743 738
740 730
755 723
739 731
703 694
689 678
684 657
659 647
624 611
609 593
619 584
604 590
566 556
552 544
557 535
549 536
525 508
508 491
512 483
499 492
468 461
453 444
442 425
419 418
389 385
368 362
366 364
341 344
303 309
286 293
285 291
269 273
239 240
221 223
226 233
216 222
190 195
177 183
176 183
166 170
149 148
141 135
144 143
141 143
161 161
241 231
371 346
499 456
607 550
713 645
757 753
759 756
762 759
757 756
759 756
760 757
752 746
752 741
757 753
756 756
747 747
748 747
759 756
751 757
747 740
746 738
757 753
756 756
751 748
748 746
759 756
745 756
743 735
738 727
749 739
717 729
704 694
691 677
680 666
640 641
619 604
604 584
609 590
568 574
551 540
541 529
547 533
527 522
513 493
499 480
507 494
478 486
467 455
449 437
439 432
408 414
393 383
376 363
371 363
326 344
307 308
292 292
288 286
256 264
235 232
222 217
229 226
201 216
189 188
175 175
175 174
155 163
153 144
171 158
245 230
324 321
450 415
583 529
713 643
758 727
758 746
757 747
758 755
763 757
758 754
752 750
759 757
752 758
751 742
749 738
757 755
747 756
747 746
751 747
759 757
751 757
748 740
748 739
757 755
750 756
745 743
742 740
754 751
737 739
725 703
707 682
706 685
664 663
643 620
619 595
606 585
573 562
558 532
548 517
551 524
514 512
503 484
499 477
506 481
481 466
462 437
452 427
459 437
433 429
415 395
392 376
383 370
352 348
335 315
334 293
303 291
262 258
244 237
241 220
221 213
191 181
176 167
188 158
178 168
151 140
142 135
173 153
238 221
331 296
458 402
604 514
715 640
757 711
761 754
758 757
760 757
758 752
752 744
755 742
757 755
754 751
749 747
758 746
759 757
748 742
747 736
755 737
757 755
748 748
750 748
758 747
760 757
744 739
742 734
755 734
757 751
727 717
713 700
712 680
694 670
653 627
623 597
617 575
596 576
550 530
529 511
523 494
507 492
485 466
477 452
486 443
469 452
436 422
427 413
430 403
414 400
382 368
362 350
367 337
350 342
311 305
287 287
279 268
260 262
232 230
212 208
209 192
191 196
167 172
158 161
157 147
138 140
112 114
112 110
165 143
248 233
340 315
467 430
612 545
728 659
758 726
759 746
757 748
758 755
757 755
755 753
759 750
760 757
747 742
745 737
757 740
758 755
745 742
744 743
759 745
760 757
749 741
747 737
756 740
758 755
746 744
744 741
753 736
743 739
719 708
703 687
701 686
667 661
615 614
589 590
582 580
557 554
518 515
497 495
504 504
492 493
462 463
446 448
444 449
434 439
415 415
404 402
407 410
388 398
356 369
344 356
341 352
317 331
285 298
267 279
264 279
242 260
203 224
185 208
179 203
163 183
137 152
127 141
169 185
229 252
336 331
463 441
597 558
685 649
749 712
753 743
758 754
764 756
754 753
750 749
759 756
749 757
746 739
742 733
756 753
736 755
738 737
741 738
755 752
741 752
741 736
744 735
757 753
744 756
735 737
732 735
743 739
712 719
684 679
654 654
648 653
601 629
571 581
541 553
526 542
492 521
477 488
463 470
463 475
425 463
415 435
409 427
413 429
386 414
372 388
363 378
374 391
344 381
327 349
309 334
306 332
280 315
268 286
268 283
325 338
383 407
496 485
608 578
718 675
755 748
756 747
756 747
757 755
763 756
755 753
751 749
759 757
749 758
746 737
741 733
756 755
737 756
738 738
740 739
754 754
741 752
743 736
745 735
757 755
737 756
733 734
728 726
724 722
685 697
660 660
635 635
627 634
575 606
544 560
520 538
511 529
477 507
458 472
437 452
436 458
404 446
395 419
391 413
392 414
365 400
351 372
338 357
337 361
296 342
276 309
261 292
255 286
224 263
200 227
198 207
172 205
133 171
104 139
88 112
59 96
26 58
16 46
73 77
161 173
270 267
420 399
578 524
700 646
757 718
760 746
755 748
758 756
758 759
753 754
758 751
760 757
749 746
747 740
755 739
757 755
745 746
745 744
758 746
759 757
748 742
745 737
755 739
757 755
745 745
739 739
748 736
743 740
716 710
695 686
690 663
661 663
612 619
587 595
575 571
546 557
508 520
488 496
491 480
473 485
433 448
410 430
409 417
400 418
375 390
360 373
363 363
348 371
316 339
301 325
294 306
273 299
243 267
225 247
225 230
201 228
164 192
147 178
145 162
129 157
101 125
83 105
87 94
82 107
97 116
176 185
301 284
438 415
568 522
693 627
757 722
758 755
763 761
761 759
759 756
760 757
757 748
752 743
756 744
758 756
751 750
748 748
759 747
759 757
748 742
749 739
757 741
758 755
750 748
750 747
759 747
759 755
740 734
737 729
756 726
742 734
700 693
677 672
669 651
643 638
604 597
576 568
571 570
547 551
509 513
493 496
488 491
468 473
439 442
424 424
430 432
411 418
377 387
364 377
367 378
354 363
326 332
307 314
306 319
285 301
247 264
222 239
208 227
184 203
153 168
133 146
122 141
98 120
80 102
122 137
225 226
350 330
478 436
615 553
756 680
765 755
764 760
763 758
760 756
764 757
757 749
754 743
757 754
755 756
749 749
748 748
759 756
748 756
745 738
746 736
757 753
758 756
754 748
751 747
759 756
749 756
746 736
742 730
756 748
729 737
715 698
697 676
685 663
642 634
615 593
592 567
590 568
546 547
523 510
508 495
510 495
486 480
473 451
460 437
467 450
436 441
427 414
416 402
414 401
388 388
376 361
363 346
363 351
321 335
302 301
284 283
277 275
242 252
226 222
241 232
321 304
404 392
528 478
650 582
759 692
763 758
762 752
760 749
758 755
763 757
758 754
756 751
759 757
755 757
749 738
746 735
756 755
747 756
745 740
746 743
759 757
749 756
749 739
750 736
757 755
748 756
746 739
745 734
754 734
728 713
711 675
695 654
693 654
645 628
617 584
594 561
584 551
549 526
528 488
509 469
509 476
474 462
462 432
449 417
446 416
420 402
407 376
398 364
400 371
361 357
344 327
329 311
324 307
291 284
268 250
268 232
249 239
211 208
195 189
219 196
281 259
375 331
507 436
658 544
757 665
763 734
764 756
758 757
760 757
763 754
758 745
755 743
757 755
756 754
752 749
758 747
759 757
749 743
750 738
755 738
757 755
755 749
754 748
758 748
760 756
752 741
748 735
754 734
757 755
741 729
734 715
745 702
743 697
720 663
704 638
706 620
688 626
652 591
639 576
640 561
623 558
595 530
582 515
592 505
575 514
536 481
513 464
510 449
496 448
467 419
459 408
497 424
553 488
613 536
706 612
758 691
760 757
764 755
762 751
756 752
758 756
763 762
763 758
760 757
761 758
763 753
761 746
756 747
758 756
763 759
761 758
760 756
761 757
763 755
762 750
757 749
758 756
763 756
760 752
759 750
760 757
752 738
746 731
756 731
757 742
733 700
721 677
722 654
705 641
675 601
654 572
652 553
628 554
590 516
583 505
608 509
640 544
679 571
740 617
756 672
758 737
754 743
750 746
759 745
760 756
747 735
744 727
757 747
758 739
738 704
734 684
735 676
720 657
698 626
694 613
711 628
701 623
672 598
668 592
676 598
666 586
637 554
619 539
622 548
602 535
561 498
537 477
524 471
497 448
463 414
437 390
428 390
403 375
372 348
360 338
363 341
350 328
327 305
318 297
330 312
307 307
292 281
277 271
276 273
248 257
235 229
220 214
238 237
256 268
323 305
405 372
505 453
563 513
623 551
669 590
719 640
710 655
708 639
704 640
712 650
688 642
673 615
653 599
655 610
619 602
612 577
609 573
620 583
606 581
607 565
607 563
623 581
589 575
573 546
559 534
556 533
523 514
498 478
473 459
468 463
424 444
403 408
382 389
374 385
345 371
333 344
322 332
326 340
290 331
280 305
271 296
274 298
256 290
271 286
314 319
396 391
450 453
519 495
577 545
637 599
658 627
680 630
690 640
711 669
686 671
681 650
677 646
678 649
644 633
623 604
610 591
619 607
589 601
582 577
581 577
594 588
572 577
564 553
554 544
559 559
522 547
505 515
486 498
475 490
436 469
411 432
392 414
388 418
346 400
327 369
315 357
316 358
292 343
278 316
266 307
275 321
259 322
288 326
338 363
422 434
485 494
554 535
611 582
670 642
673 668
689 666
699 676
715 693
695 686
686 666
696 659
681 673
640 647
621 626
618 613
610 619
594 598
593 592
610 588
603 607
573 582
563 575
566 566
551 564
517 533
496 515
497 499
476 505
432 467
406 446
395 429
374 422
343 390
323 369
323 352
304 361
273 331
264 325
268 315
256 315
234 293
226 283
239 277
228 289
197 260
179 249
178 236
166 235
143 209
126 192
123 177
106 184
77 154
67 145
63 131
49 128
28 104
18 92
27 83
22 90
7 66
7 62
19 57
17 61
8 38
7 31
23 29
21 37
7 12
7 17
46 51
122 136
216 216
329 316
455 415
546 522
593 571
644 621
692 657
708 689
697 683
698 687
722 695
717 719
686 693
670 684
672 677
664 683
646 662
646 656
667 659
667 685
648 667
650 669
661 666
650 670
621 643
605 627
608 616
584 620
537 578
511 558
500 538
477 528
441 491
417 466
413 451
394 456
360 424
348 411
347 398
332 397
309 373
300 360
308 352
293 359
259 330
246 319
245 306
230 302
202 269
183 250
182 257
165 241
133 210
116 192
109 188
94 172
72 146
57 127
62 138
46 124
20 99
12 89
17 92
16 79
7 54
7 43
22 51
21 42
12 32
47 73
139 163
246 261
343 346
453 441
565 550
633 623
664 655
699 692
732 727
731 733
711 718
704 714
716 733
688 729
664 696
646 684
647 686
620 672
617 651
617 648
638 674
624 685
626 667
625 666
629 669
599 656
581 625
568 611
565 613
515 590
483 544
454 519
438 504
397 475
367 430
339 403
333 404
294 387
280 354
267 340
264 339
241 327
233 302
225 291
232 301
196 288
185 259
173 246
170 243
140 224
121 190
102 172
100 173
64 155
46 120
23 98
17 89
4 69
7 40
7 21
22 24
4 23
7 8
7 8
17 19
5 20
34 46
119 129
247 256
346 369
456 455
547 545
630 628
666 676
695 693
708 708
723 738
689 735
673 705
659 694
654 692
618 672
598 640
585 627
598 644
575 643
586 629
591 635
613 656
604 657
608 642
608 639
614 654
575 643
558 609
540 590
527 579
478 545
444 501
416 473
407 469
360 441
330 397
308 376
304 372
280 356
268 328
254 313
258 324
233 316
230 293
223 284
222 283
199 271
197 254
191 245
196 253
163 238
145 206
131 191
129 186
103 167
88 137
115 143
159 205
230 271
337 360
453 451
543 547
602 600
659 651
721 690
741 736
718 725
709 722
710 714
691 712
646 669
606 634
589 603
561 602
524 565
518 557
530 556
537 575
536 567
547 571
570 573
562 591
530 564
517 553
516 537
492 528
447 484
415 453
405 425
373 416
319 364
281 331
259 299
230 282
194 240
170 214
165 191
142 191
116 162
121 166
166 191
228 257
303 322
402 408
520 498
600 593
637 629
676 670
717 699
730 726
720 716
716 711
726 709
715 726
682 697
671 686
669 673
654 674
632 653
632 647
656 649
652 668
623 644
617 641
630 638
626 646
602 618
586 602
589 591
573 600
536 563
516 543
505 524
482 516
458 488
440 467
439 448
414 448
382 419
398 431
464 472
538 543
600 592
676 658
756 725
758 756
756 755
753 753
759 750
760 757
743 741
743 736
756 738
757 755
729 735
725 732
736 726
729 731
710 712
714 713
746 724
753 752
732 730
724 727
731 722
719 724
690 692
666 668
656 667
625 644
579 601
555 577
541 564
507 534
469 495
450 474
453 479
434 463
393 425
375 410
378 410
369 398
346 369
332 354
337 365
326 356
299 328
289 317
308 333
342 362
406 411
500 488
608 586
676 653
711 687
745 730
759 756
760 757
746 739
741 734
756 753
747 755
743 742
740 739
747 747
729 743
727 721
728 715
746 733
718 733
712 710
714 709
727 717
706 708
684 677
666 660
668 666
625 648
594 601
561 574
546 561
510 536
488 498
466 473
458 474
419 459
416 432
401 417
397 416
373 404
364 379
356 369
362 379
328 369
317 340
305 328
305 327
275 308
258 277
243 261
245 267
212 253
199 221
182 206
181 205
160 193
152 169
142 157
147 166
119 158
114 135
109 127
111 127
88 113
80 92
73 83
82 92
56 85
45 58
38 51
57 67
90 104
162 152
249 230
351 330
405 401
465 439
509 479
544 515
542 527
547 519
551 523
570 547
545 545
541 525
535 520
542 527
522 519
516 497
512 493
529 516
512 519
517 504
519 505
529 516
513 512
509 491
504 484
509 494
472 481
458 450
443 435
440 431
410 412
390 381
375 366
381 375
352 365
346 341
336 331
339 335
321 325
316 305
311 297
319 308
294 303
288 280
283 273
286 274
263 260
254 238
268 230
256 241
229 220
217 205
220 196
212 198
193 173
184 162
191 150
179 161
155 136
150 132
158 125
149 127
132 107
129 102
146 99
141 114
119 90
122 97
163 125
216 186
272 236
339 299
418 358
465 427
480 443
501 466
522 475
521 490
505 474
502 469
519 468
513 485
485 461
480 458
488 453
483 460
467 440
464 436
487 441
491 467
477 452
478 454
488 452
484 461
466 440
460 431
470 421
450 424
415 392
406 384
410 374
399 374
373 347
363 336
377 331
370 346
347 323
340 317
349 314
346 321
332 304
328 298
341 293
334 308
311 285
307 281
315 276
305 278
285 256
278 245
291 239
282 248
253 220
241 209
243 198
234 199
214 175
204 161
210 153
202 163
180 141
175 135
178 126
169 126
152 108
149 101
171 109
196 153
225 185
289 250
369 317
428 387
459 418
486 445
525 471
534 503
521 491
519 490
523 483
515 488
498 468
493 461
506 457
495 468
469 445
467 442
483 445
486 458
475 445
479 448
504 476
504 478
484 458
478 451
483 457
474 446
452 421
441 408
446 415
432 404
405 376
398 367
403 372
392 361
372 339
369 333
387 352
383 351
361 329
357 327
361 332
359 328
346 312
342 304
353 321
350 318
327 296
324 292
331 298
321 287
304 267
299 258
311 272
289 264
284 248
304 269
359 324
400 378
457 421
506 470
564 534
571 565
587 564
596 576
608 589
592 588
588 569
585 564
600 581
570 575
561 549
555 543
566 550
550 546
548 529
551 531
577 559
560 566
561 548
559 544
567 553
548 547
540 522
531 513
540 524
506 515
501 490
492 478
494 479
468 464
454 434
445 424
456 436
429 430
421 403
413 396
420 403
403 395
399 375
393 367
403 380
376 375
372 351
366 345
370 347
346 335
338 313
332 304
342 316
314 307
304 278
297 271
305 277
288 270
285 252
276 241
289 258
268 253
263 231
257 223
261 221
244 211
245 202
273 232
341 307
386 377
456 434
522 502
586 569
604 602
622 611
638 630
665 665
646 671
646 653
642 652
651 664
634 660
630 640
626 634
638 651
611 648
611 630
617 634
635 652
622 650
621 635
622 636
639 656
612 651
601 622
590 611
591 613
566 598
553 569
540 555
541 559
508 547
499 518
492 508
492 507
465 489
456 466
472 458
462 471
434 450
424 435
429 428
422 432
403 409
394 398
403 388
393 400
367 372
358 364
362 353
348 351
324 324
314 311
325 300
311 307
281 272
272 261
277 250
269 250
252 224
249 211
267 201
266 207
249 179
251 193
291 237
347 318
408 387
485 471
574 547
624 628
640 655
667 689
698 711
706 736
689 721
683 715
699 716
697 738
670 715
663 708
669 702
667 715
657 701
663 705
692 715
698 746
683 735
688 735
702 737
700 749
678 727
670 717
681 710
669 721
631 685
611 666
607 650
590 645
561 613
545 592
548 577
534 584
502 552
494 542
499 533
489 534
469 512
463 503
481 502
477 518
455 496
448 489
455 481
448 484
426 459
415 444
423 434
410 442
380 409
365 393
358 373
340 362
312 330
298 311
303 297
290 297
263 266
258 262
289 285
339 350
398 411
481 496
584 586
655 683
693 725
737 750
758 750
758 757
741 743
740 739
756 742
757 755
732 744
729 742
738 741
726 752
703 733
699 731
722 753
725 755
708 744
709 743
724 755
723 754
705 735
696 731
701 747
680 740
640 705
621 689
613 681
585 656
546 616
523 591
523 593
503 576
468 538
456 525
460 528
451 517
431 492
421 478
424 484
411 472
383 441
375 431
373 428
357 409
333 381
322 364
328 372
299 357
281 323
271 311
273 311
251 296
242 267
234 253
245 263
218 250
215 219
212 205
223 219
243 263
316 325
410 421
523 540
581 627
648 681
705 740
756 756
747 757
742 743
739 738
756 753
735 756
724 741
710 736
707 744
677 735
663 711
656 707
674 732
658 741
667 732
681 740
706 756
695 753
695 734
693 731
708 754
675 750
655 715
636 699
631 696
599 677
581 642
563 622
563 627
527 613
514 580
504 568
505 568
481 553
474 529
471 522
486 539
459 532
451 505
447 498
454 503
434 493
425 467
414 454
421 464
390 451
380 420
365 402
355 393
330 377
321 352
315 343
324 353
294 343
290 321
307 337
365 394
422 459
507 528
596 614
699 722
746 757
754 759
755 757
760 757
750 758
747 746
747 744
757 755
745 757
742 748
741 747
754 757
737 755
736 738
740 738
757 755
745 757
744 749
743 748
755 757
738 757
737 738
737 736
747 755
712 756
700 734
685 728
679 729
642 710
622 679
627 665
610 675
573 647
558 628
561 617
552 620
532 597
524 585
536 576
528 592
502 565
496 557
501 548
489 550
467 525
461 514
475 508
466 520
435 489
426 480
431 470
420 470
395 440
380 422
389 412
392 435
400 443
453 493
536 558
611 643
673 699
739 742
755 747
758 755
752 758
749 753
758 751
759 757
743 745
738 737
754 737
753 755
723 740
713 737
720 737
721 752
713 737
716 734
744 737
748 755
730 744
730 742
741 741
733 752
704 731
689 720
696 712
677 723
634 685
610 664
602 646
580 639
545 603
523 577
521 558
500 561
464 524
446 505
443 487
424 480
399 452
385 434
391 420
374 423
337 386
320 367
316 349
300 340
269 306
247 280
243 260
225 258
200 233
221 251
282 298
353 377
426 442
510 519
601 589
652 662
664 679
684 703
707 714
703 727
674 698
654 680
654 666
629 666
584 622
555 595
542 571
523 564
501 537
500 531
520 534
522 557
508 541
512 545
527 546
521 552
497 526
486 512
490 520
470 501
425 456
395 426
377 409
346 376
305 330
273 294
258 281
228 252
190 211
174 193
174 192
166 180
153 162
154 159
172 180
171 178
151 157
149 153
157 159
150 148
135 129
129 120
140 127
133 116
112 87
110 82
143 125
207 192
290 274
395 377
520 504
591 594
651 646
704 702
754 754
745 757
741 739
736 733
750 753
719 752
703 721
688 710
678 702
641 681
621 646
609 633
621 648
595 645
595 626
600 630
617 646
602 644
595 622
588 614
598 627
563 614
542 574
514 548
498 532
456 501
427 455
396 421
383 410
333 381
309 335
284 307
270 291
230 257
208 216
190 191
189 187
156 160
149 115
143 88
151 75
136 43
138 11
141 7
161 23
147 22
153 20
186 94
279 212
366 329
470 431
565 534
659 642
690 706
723 731
739 745
752 757
735 753
718 730
693 716
682 718
625 688
586 633
546 596
525 578
492 556
487 535
495 540
526 573
509 579
518 569
527 578
546 596
530 590
519 564
506 551
507 555
465 531
434 480
397 442
373 415
326 373
293 319
266 282
261 265
228 238
216 202
208 191
214 196
200 190
200 178
203 186
224 212
209 215
212 203
227 228
293 299
364 383
465 471
567 572
674 687
726 757
750 754
752 754
759 757
741 757
733 735
737 727
701 727
632 673
580 621
544 577
502 549
460 506
448 491
476 501
507 555
528 575
571 616
622 653
652 697
663 707
684 723
714 732
717 755
689 735
679 729
687 723
676 727
645 695
621 669
612 642
574 624
501 549
436 476
391 384
344 291
297 170
269 69
268 8
251 23
222 4
228 82
329 214
445 371
551 497
652 616
754 721
758 756
757 763
753 758
758 752
756 757
732 740
715 732
705 722
669 723
605 670
563 633
535 597
499 575
463 539
458 531
486 541
502 579
498 574
511 588
535 598
541 615
527 599
519 587
524 573
504 577
464 537
441 512
427 484
395 462
354 416
329 385
321 357
295 345
255 294
238 267
237 241
234 254
270 294
355 378
490 497
605 634
688 717
753 759
759 760
760 758
754 756
750 749
757 748
758 756
739 748
733 744
738 740
717 748
674 714
645 692
643 679
627 690
603 667
603 670
622 677
629 698
621 686
622 685
636 683
620 692
584 656
563 635
554 612
521 593
476 545
440 505
422 488
381 445
323 382
285 335
265 302
238 252
207 190
193 139
201 115
194 102
195 146
283 254
414 396
535 524
631 626
725 724
757 754
759 756
757 761
752 757
759 756
758 757
741 743
734 736
741 753
715 752
666 715
636 693
621 685
597 666
573 642
574 641
601 671
591 679
585 661
584 660
594 669
571 658
556 626
536 604
529 602
481 575
452 526
418 490
392 463
340 420
305 365
276 330
261 312
215 268
197 209
183 188
214 234
279 314
386 405
500 516
622 640
688 731
747 753
752 755
759 756
748 757
742 743
740 738
755 754
716 755
686 720
654 695
629 678
577 643
546 600
530 583
547 604
533 611
542 599
549 606
567 624
557 625
556 607
548 597
552 607
513 590
494 551
473 529
461 516
418 483
388 437
360 405
349 396
299 363
267 310
246 287
275 315
329 375
426 450
531 546
641 660
703 741
749 753
753 755
759 757
749 758
744 743
744 739
756 755
733 756
720 735
702 725
690 721
647 694
621 656
608 643
623 663
604 665
606 647
605 647
616 659
597 651
589 625
575 610
572 612
527 590
504 548
482 524
468 510
419 470
385 422
354 387
343 377
293 343
258 288
227 252
212 231
176 199
160 166
173 179
251 261
332 358
445 450
557 554
659 653
715 720
746 741
754 743
758 755
749 756
745 747
754 745
753 757
736 738
727 730
730 719
710 729
669 693
655 679
657 669
649 675
632 657
633 653
655 653
651 673
619 645
608 635
609 622
592 618
556 580
528 549
520 524
493 519
445 471
413 439
393 406
362 387
325 345
302 318
300 295
275 292
240 254
227 240
228 225
214 221
190 192
177 175
186 163
173 166
144 133
134 114
138 91
132 77
118 36
118 7
138 8
138 23
123 12
166 91
289 216
410 359
518 472
622 581
729 674
758 755
754 755
751 752
758 750
759 757
743 743
739 736
756 735
747 755
713 731
697 720
693 707
675 706
656 686
657 684
688 695
691 721
667 699
659 692
666 685
659 691
633 662
612 639
612 622
587 620
541 575
513 546
493 514
461 494
417 447
388 412
380 386
350 376
307 333
286 310
280 291
272 291
280 295
342 351
452 441
556 558
630 627
712 706
759 751
760 757
752 750
750 745
757 746
758 755
745 748
742 745
754 744
746 750
713 721
694 705
701 717
690 710
664 684
661 683
677 699
679 700
665 682
660 674
670 687
654 679
618 642
601 624
591 614
560 585
520 542
492 512
486 506
455 478
403 427
371 395
350 375
329 351
317 334
354 365
448 456
543 547
620 615
709 697
759 756
761 757
754 750
751 745
757 754
757 756
746 748
743 746
753 756
735 751
717 721
695 703
697 710
666 703
660 679
664 681
677 693
663 693
662 673
659 667
669 681
632 669
614 634
596 615
588 606
545 577
513 531
484 502
475 495
425 465
392 414
359 382
343 367
306 340
286 302
266 279
262 279
226 262
214 229
202 213
198 207
178 197
209 212
283 280
404 397
497 503
598 579
685 664
759 746
754 757
752 747
749 741
756 755
746 756
741 744
739 742
745 749
713 735
694 703
678 687
686 700
655 692
648 668
650 668
666 683
653 680
646 657
637 648
645 662
610 649
593 612
569 590
554 577
513 549
485 506
452 472
436 460
383 430
353 384
328 357
315 344
278 317
255 279
238 260
241 263
208 247
192 213
173 193
169 188
159 186
197 206
271 274
382 384
466 483
564 557
648 635
724 710
744 749
744 738
744 737
757 755
737 756
725 732
707 720
696 713
657 687
632 650
619 635
628 650
606 649
613 634
623 641
641 658
628 656
628 641
648 638
638 654
600 625
579 601
573 583
553 575
516 536
489 507
481 481
454 478
408 432
385 409
372 383
344 368
310 332
292 311
300 298
308 326
332 348
407 418
517 506
614 606
690 671
747 733
755 744
757 755
752 754
749 751
758 748
759 757
739 739
734 731
749 728
732 737
689 701
673 688
680 682
679 692
665 673
664 668
681 668
678 688
650 663
639 651
633 635
612 628
576 592
553 567
544 539
510 531
460 485
433 459
419 432
390 415
350 372
323 344
319 322
299 322
261 284
241 265
234 246
216 239
190 209
177 192
179 177
162 180
132 148
121 137
121 123
105 117
78 84
64 67
69 53
56 57
30 22
22 8
27 7
22 16
11 4
14 6
34 9
40 23
31 7
39 7
55 7
62 16
74 36
176 143
334 283
479 445
590 554
694 659
759 744
760 757
756 752
751 745
757 745
758 755
746 748
745 746
755 744
749 751
730 731
727 727
748 730
746 752
727 735
733 738
751 740
751 752
733 731
725 723
736 740
725 734
684 695
657 670
641 656
609 625
566 580
537 548
525 539
492 511
445 465
420 440
410 428
386 402
352 366
335 345
340 352
326 339
295 307
281 293
274 286
262 271
241 245
227 228
228 233
212 217
183 185
168 168
163 161
148 137
126 104
117 83
128 83
111 59
108 15
109 7
122 19
112 21
147 67
243 175
386 328
501 467
623 572
724 673
759 756
760 758
756 752
751 746
757 754
754 756
747 748
745 746
757 756
739 753
733 731
726 724
744 745
725 750
729 735
736 738
751 752
736 750
735 732
735 729
746 745
707 734
685 695
667 677
659 668
615 638
583 593
553 560
541 552
487 520
454 468
424 439
411 424
375 398
354 360
333 338
335 343
306 333
300 306
292 296
293 296
272 284
265 262
259 253
270 265
240 253
226 221
210 203
206 194
178 172
166 135
157 106
167 94
145 75
153 87
224 170
347 296
462 422