765 764
750 725
577 567
392 418
261 305
180 233
112 169
54 112
16 77
20 68
17 44
5 13
7 9
16 19
15 16
6 4
7 6
20 23
6 21
6 8
7 10
16 23
5 21
9 12
8 11
22 29
4 32
14 41
28 68
59 113
72 149
99 177
123 215
159 267
157 294
174 303
193 325
218 353
222 367
232 365
239 370
266 399
256 405
261 393
269 397
286 411
288 419
298 413
308 421
332 447
320 452
323 437
330 439
347 450
339 447
343 432
346 431
365 448
346 446
347 426
350 422
363 429
353 423
355 405
355 401
369 415
352 415
357 401
369 412
395 441
403 467
427 487
453 524
494 581
494 613
510 621
528 643
555 673
556 684
565 681
574 690
597 718
579 720
577 699
580 697
593 706
581 700
581 683
582 681
599 700
575 696
570 672
569 664
577 667
559 655
553 629
547 617
557 627
527 615
518 585
513 573
520 573
502 559
495 534
490 524
499 534
471 521
462 492
457 479
462 478
442 462
435 439
435 438
457 467
450 488
467 500
488 529
518 568
519 587
526 587
536 601
561 635
540 638
542 625
538 620
554 633
537 621
530 598
544 589
534 601
509 582
500 568
512 564
511 571
496 551
492 542
506 535
499 547
473 520
465 510
473 500
468 500
449 474
444 464
457 455
453 471
429 446
422 438
431 429
427 429
410 405
404 393
416 383
409 394
388 375
392 385
420 405
439 442
449 459
471 489
507 518
520 559
509 557
512 566
532 575
538 591
532 582
529 575
543 571
536 583
509 557
502 549
512 542
511 549
499 532
497 527
512 523
506 536
480 511
473 502
479 490
472 489
454 464
444 450
456 442
448 451
423 425
418 417
428 409
424 410
409 388
405 378
417 370
410 380
385 353
373 339
383 332
387 343
377 333
394 356
433 390
454 444
459 464
480 496
506 518
523 552
521 552
526 558
551 571
552 595
531 576
530 575
543 572
542 578
528 558
526 553
543 552
539 569
517 548
516 546
529 543
528 549
514 529
512 521
526 517
519 529
494 503
489 494
499 487
496 491
480 468
478 462
492 459
485 469
461 444
456 435
465 427
460 426
445 404
441 396
457 415
459 421
451 422
470 451
505 495
527 527
535 542
551 566
582 606
585 620
572 612
578 620
601 641
602 642
588 623
585 618
600 633
593 630
570 607
568 605
582 615
580 612
567 595
566 591
580 606
571 601
546 574
541 565
550 568
543 557
527 533
523 524
535 536
515 529
502 503
497 495
507 499
491 489
487 467
482 458
496 472
472 468
471 453
479 464
506 496
512 521
531 537
550 564
582 609
566 623
572 618
581 630
600 649
592 652
592 638
591 635
604 650
577 644
570 620
569 614
584 624
572 619
571 603
570 600
585 618
561 614
554 589
549 581
558 584
540 571
529 541
526 534
538 547
512 540
506 516
502 507
510 508
496 500
491 478
490 473
507 490
484 486
481 464
481 459
495 469
489 473
502 477
521 504
559 556
560 591
578 604
598 631
627 666
628 681
636 679
645 689
668 720
651 725
649 707
650 705
660 712
649 707
650 690
654 692
670 713
650 714
650 697
655 699
672 711
661 707
662 690
663 688
683 709
663 708
664 690
671 691
692 706
685 705
689 692
696 695
717 718
696 717
696 697
699 695
712 703
697 695
696 677
700 677
724 704
714 719
733 728
749 752
765 762
755 763
756 754
758 754
762 761
756 763
754 762
755 760
765 762
758 763
758 756
760 755
763 761
760 767
756 764
763 763
765 762
762 763
761 758
761 757
763 761
765 767
761 765
764 765
765 762
766 766
764 759
761 757
763 761
762 767
756 763
763 759
765 762
754 753
753 747
760 747
763 761
749 753
745 751
760 752
764 762
752 754
752 749
761 751
763 761
748 759
741 754
752 752
747 761
721 742
699 730
688 712
653 706
594 657
559 625
542 595
515 579
479 541
460 518
461 502
445 508
415 478
403 467
408 455
396 450
381 427
379 420
391 413
383 422
357 396
350 389
359 381
357 385
345 366
342 358
355 354
349 367
326 342
321 335
332 329
332 334
324 320
330 322
359 337
376 379
380 394
404 430
443 465
466 505
472 515
478 525
503 540
510 571
495 561
502 568
522 575
521 583
517 573
518 569
536 569
530 584
511 566
509 565
524 564
525 574
514 557
513 552
528 550
515 558
492 536
484 525
497 520
495 522
480 499
477 490
496 490
491 502
470 481
461 471
474 467
465 466
454 447
448 437
457 448
448 440
425 417
429 422
459 451
483 478
498 498
523 530
565 584
582 614
577 618
590 636
616 661
624 671
619 662
622 663
639 682
633 681
613 660
613 658
627 667
631 667
626 656
633 659
659 685
661 692
643 675
645 675
660 683
657 676
641 653
636 643
649 656
628 650
615 625
614 622
631 633
624 632
629 619
635 620
660 645
643 649
644 634
653 639
681 662
683 672
700 677
727 707
736 758
749 761
754 762
735 748
730 745
741 759
723 762
694 752
680 751
691 761
684 759
658 738
643 732
652 751
623 748
601 720
588 709
597 716
586 718
591 713
599 727
626 759
613 761
620 754
626 753
643 761
627 759
625 740
623 738
632 758
596 754
574 720
552 698
551 690
518 662
493 616
468 586
453 575
393 538
353 483
311 436
271 388
209 324
167 254
134 207
122 191
82 162
70 128
63 114
74 118
68 112
73 100
67 97
65 109
32 107
25 95
20 93
28 97
20 91
29 77
40 77
66 99
64 114
80 120
113 153
158 199
180 232
211 252
233 276
263 315
252 329
265 329
278 340
300 357
295 360
288 343
280 334
291 346
273 345
274 328
282 328
303 339
300 339
307 326
312 327
330 348
310 349
310 334
314 332
328 339
319 332
320 314
323 311
336 328
318 328
313 310
316 307
335 319
325 312
323 291
329 290
348 311
327 310
333 304
346 316
385 353
401 379
423 387
453 415
493 465
489 488
505 498
528 524
542 547
520 547
507 532
498 527
506 544
482 539
478 518
480 513
494 518
485 512
486 493
505 490
501 508
476 491
469 478
479 467
478 464
463 434
462 418
479 406
472 413
448 385
447 379
461 370
462 372
448 347
446 336
461 331
454 346
427 325
420 323
431 321
433 332
426 326
436 342
467 370
478 419
471 433
480 460
505 481
510 504
496 496
490 493
501 494
494 515
463 492
452 485
457 473
449 471
430 443
421 425
433 412
429 422
408 398
407 394
424 391
426 398
413 378
410 371
424 368
416 384
385 360
374 353
383 348
383 355
367 333
359 321
369 315
357 326
328 302
318 295
323 285
318 284
303 262
298 251
310 249
306 267
290 262
298 282
328 307
347 342
355 352
371 372
401 393
406 425
389 416
390 420
407 422
409 430
393 408
391 400
408 400
406 418
384 400
382 399
398 399
402 408
394 394
396 391
412 393
408 410
386 391
382 389
395 385
394 389
385 373
384 366
399 367
402 389
381 373
380 372
396 371
398 379
390 364
391 361
406 364
401 379
383 364
387 372
414 387
432 417
436 424
452 444
487 491
500 516
489 514
494 524
514 541
520 543
512 529
511 523
524 538
512 531
481 503
472 492
480 494
478 486
466 466
465 460
482 479
476 478
451 456
446 448
451 447
447 436
433 415
431 407
441 420
431 416
406 394
402 389
415 396
416 391
404 373
404 367
417 383
398 381
388 361
384 358
397 367
390 369
399 368
411 385
439 428
427 452
432 454
443 470
470 494
470 502
478 494
485 499
503 523
480 525
472 503
468 497
479 500
463 489
454 461
449 450
463 468
439 465
431 443
428 437
440 442
429 435
432 419
434 416
453 437
436 441
439 429
447 435
473 452
472 456
483 447
493 452
518 480
504 487
506 475
512 477
529 485
525 485
535 475
544 480
571 516
564 541
576 551
593 577
624 615
626 632
636 634
644 645
667 678
648 686
646 672
647 673
662 683
649 677
650 660
652 659
673 684
654 691
654 678
659 680
674 692
662 686
659 665
654 658
666 675
637 670
627 645
621 638
629 641
612 630
606 607
602 598
612 614
584 609
577 588
578 586
589 591
578 586
584 573
589 576
609 604
594 615
601 614
615 632
642 662
642 674
651 671
658 680
676 710
653 713
649 696
650 694
658 700
643 689
638 666
631 655
638 667
605 657
595 632
593 625
601 629
590 623
585 602
605 600
600 619
570 600
557 585
563 574
562 578
550 558
546 547
560 540
553 555
526 532
520 527
531 521
532 527
520 506
518 496
532 492
528 510
506 494
508 501
534 514
549 540
550 541
560 552
582 562
586 596
573 593
581 607
612 627
642 666
666 685
703 717
750 741
762 761
737 749
713 732
693 702
664 683
627 643
604 614
598 591
573 591
529 553
507 533
504 513
490 504
464 470
446 446
445 427
423 428
384 391
363 371
361 352
350 344
331 316
325 302
341 298
341 315
328 302
329 305
356 317
378 348
395 365
421 393
464 430
491 489
497 512
524 549
553 572
568 602
569 600
570 599
585 600
575 614
552 597
549 593
563 590
565 597
553 578
558 576
582 583
582 608
570 600
578 608
603 616
611 630
609 620
620 625
646 633
643 654
624 639
626 642
646 645
649 655
640 638
644 638
666 644
660 662
629 636
626 633
638 627
636 630
637 623
650 635
693 668
713 720
709 730
729 752
759 755
759 762
750 749
751 746
762 760
763 761
741 754
737 752
755 761
751 759
741 742
736 737
752 758
743 761
716 744
715 746
725 753
721 750
707 730
702 720
710 732
690 720
656 689
639 673
649 675
646 667
634 644
631 636
647 652
641 653
620 633
628 637
644 646
644 641
634 621
635 618
656 644
645 658
651 663
665 684
695 717
698 735
707 733
713 738
738 759
719 762
708 747
700 742
709 749
687 735
669 700
655 682
660 689
622 675
607 645
600 637
609 640
589 625
586 604
582 597
592 611
562 606
549 581
541 571
550 573
533 560
527 535
524 527
534 539
509 534
500 508
495 498
505 498
491 486
489 462
485 453
502 473
484 482
487 479
495 494
524 526
531 547
542 549
551 562
573 596
553 604
547 590
553 597
569 609
559 607
559 588
560 585
573 602
550 603
544 581
549 582
569 595
561 591
564 576
567 575
583 596
559 595
552 573
551 568
563 571
549 560
544 535
540 526
550 540
521 533
512 508
507 498
516 499
500 485
492 458
489 451
502 468
479 467
474 449
479 454
502 479
504 495
518 501
532 522
559 565
545 584
549 582
559 593
581 614
575 617
579 607
583 610
597 632
571 629
562 606
560 599
570 602
554 589
549 565
546 557
557 574
526 564
514 538
515 533
530 540
518 531
515 509
530 501
522 515
494 495
484 481
495 472
492 473
478 449
479 441
497 437
490 451
461 426
452 418
460 407
455 406
438 382
434 372
453 375
457 406
446 410
460 437
492 465
512 502
516 510
528 525
555 543
559 577
538 567
540 575
562 584
569 599
557 582
554 573
561 562
554 577
528 555
516 544
531 541
528 543
511 519
503 505
513 495
499 504
466 474
450 459
451 442
441 435
419 405
410 388
420 378
410 388
384 364
377 359
389 353
388 356
372 331
368 320
379 312
372 325
344 300
331 288
338 277
336 282
330 273
340 286
371 312
384 360
380 372
393 398
421 419
434 445
432 443
439 450
460 460
457 483
433 466
430 466
447 466
448 472
433 448
430 438
446 437
440 452
416 432
412 429
426 426
428 433
417 415
417 409
433 408
427 422
402 399
397 392
408 385
407 387
395 366
392 356
405 353
397 364
369 339
363 332
374 325
377 330
362 308
357 297
370 293
363 305
340 285
339 284
360 293
377 320
386 333
409 364
448 419
466 453
463 465
477 488
504 517
513 528
510 522
515 526
536 552
533 557
510 539
508 536
522 544
522 537
511 518
511 513
527 532
523 534
501 516
500 515
516 524
516 518
504 497
501 488
515 503
505 497
473 467
469 460
483 465
484 457
471 435
469 427
484 442
464 438
452 416
449 412
462 417
449 408
446 386
442 377
454 390
428 385
420 364
421 365
443 386
447 404
466 417
486 447
527 503
522 535
531 542
542 561
567 586
562 593
567 584
570 586
587 610
562 611
553 588
549 583
561 587
546 578
543 556
541 549
557 568
529 565
523 544
523 541
542 553
529 545
527 524
526 517
542 536
521 536
518 518
521 517
537 526
528 520
528 501
528 495
541 511
514 506
503 481
499 472
509 473
494 462
491 439
490 435
509 461
497 478
510 487
532 518
568 562
579 592
600 605
617 628
646 669
627 680
628 672
639 681
655 695
644 691
651 679
649 673
661 690
631 683
620 657
617 649
627 653
611 642
607 619
604 612
615 628
586 623
578 599
574 590
584 592
565 575
556 545
545 529
547 533
514 520
499 490
498 481
503 480
484 464
474 435
466 423
471 432
440 420
428 393
424 384
431 383
417 373
418 360
424 370
446 407
440 436
459 455
483 486
514 522
515 538
524 538
550 549
550 578
528 570
524 567
536 564
537 570
524 550
522 540
541 538
542 560
523 545
525 550
545 555
553 569
543 554
542 546
559 544
560 565
536 544
529 538
540 528
535 527
513 497
501 476
506 461
490 466
454 435
440 421
443 408
437 406
418 378
411 364
421 355
411 365
382 340
373 333
384 328
388 341
388 340
404 362
441 394
460 449
460 466
476 495
505 516
517 543
513 538
516 540
535 545
531 566
506 547
500 543
514 540
518 548
512 532
518 532
542 539
544 565
525 552
525 554
540 552
541 559
528 538
525 528
539 522
529 535
498 507
488 497
495 486
490 484
472 457
461 439
467 427
453 432
419 401
406 387
409 373
402 368
383 340
375 326
383 321
383 347
375 353
391 382
424 413
446 452
453 463
467 482
494 500
496 531
476 521
476 525
492 526
493 533
481 513
478 505
493 504
489 520
466 501
465 500
480 499
487 511
480 497
487 500
505 503
500 520
476 499
472 494
485 488
483 490
470 466
465 454
477 467
468 461
442 436
436 429
447 433
444 423
430 400
426 390
438 403
429 397
404 373
399 367
413 376
419 380
421 382
439 406
477 459
494 496
490 509
503 534
529 565
538 577
533 569
536 572
554 596
547 599
522 578
519 573
530 578
527 569
513 547
511 539
526 557
506 556
494 535
491 531
504 537
491 529
489 507
485 497
497 511
470 505
462 480
458 472
469 475
455 464
453 441
443 426
455 439
431 435
426 414
423 407
433 410
419 400
417 379
416 374
434 398
422 415
434 425
456 456
494 501
504 529
521 539
532 556
556 592
538 605
537 594
539 597
552 606
541 600
539 579
542 577
555 593
529 590
522 568
521 565
536 575
526 571
527 553
527 549
541 567
515 564
507 540
504 532
515 535
500 523
496 498
493 488
505 501
478 494
464 465
461 457
473 460
457 448
452 423
446 412
456 425
428 419
420 397
424 399
448 422
452 441
471 454
489 483
522 534
514 562
521 567
533 583
560 607
557 614
563 605
563 606
578 629
553 627
551 611
548 605
555 607
536 591
525 563
513 549
515 555
478 541
460 509
451 495
459 494
445 480
442 457
441 450
454 465
430 459
421 436
417 427
424 429
403 411
396 387
394 382
407 399
385 396
380 378
383 375
400 384
391 376
391 358
410 353
405 372
389 366
400 381
439 412
473 463
496 493
525 529
569 567
589 622
586 633
601 657
631 677
648 704
646 699
655 702
679 707
686 736
670 724
681 733
710 743
725 759
723 745
734 740
757 741
758 761
732 749
728 747
742 747
744 757
730 740
727 733
740 730
732 747
698 720
685 709
689 696
681 694
658 662
645 641
653 626
640 633
607 602
592 587
590 569
577 562
552 531
542 518
555 522
553 553
537 554
543 574
568 592
578 618
572 612
577 615
600 623
602 650
582 636
580 637
592 634
589 641
573 619
568 609
583 608
578 626
553 607
551 606
566 606
569 614
559 596
559 590
576 589
572 607
548 585
541 577
553 569
555 574
548 556
550 549
569 549
565 568
542 547
539 544
553 540
554 545
541 524
540 514
556 512
551 528
530 513
538 525
569 546
590 583
600 597
617 621
653 652
665 699
657 704
667 722
692 735
701 756
697 741
701 737
722 742
716 761
689 742
684 739
696 734
694 739
678 716
672 707
684 721
671 715
639 686
628 674
635 673
626 658
607 628
599 612
608 620
595 611
563 581
553 569
561 568
554 554
534 525
525 509
532 517
518 507
486 479
477 465
483 463
477 448
460 422
454 410
466 425
464 432
453 432
467 456
500 496
519 523
525 533
539 554
566 593
554 609
548 601
551 608
569 623
560 622
559 604
557 598
571 615
544 613
536 591
535 588
550 596
534 586
534 568
537 566
552 584
533 588
528 568
527 563
538 567
531 563
530 541
530 534
547 552
526 552
522 532
524 530
541 539
532 534
533 516
535 512
551 530
526 528
519 506
517 500
527 503
513 492
510 472
509 471
532 505
523 530
538 544
555 571
584 606
585 623
594 622
600 632
620 662
597 668
591 651
588 648
597 652
577 639
567 611
558 597
565 607
533 598
520 571
513 560
521 562
503 549
496 523
490 512
497 523
466 514
455 486
449 474
456 473
440 459
435 435
431 425
440 438
412 431
403 408
401 400
409 402
395 390
391 367
388 357
397 370
371 363
363 341
364 340
384 357
388 372
406 384
429 415
465 469
463 499
474 506
487 524
510 548
507 554
513 547
518 553
534 579
511 579
505 559
504 554
514 558
500 547
498 527
497 523
506 538
478 532
472 512
476 510
488 516
473 504
471 483
487 476
478 488
450 469
443 456
452 448
452 451
439 430
438 422
456 419
454 437
432 418
430 417
444 415
447 421
436 402
435 394
452 391
448 407
422 384
419 384
439 388
458 416
465 425
486 451
527 486
546 541
542 555
554 581
583 602
597 629
593 626
601 632
625 641
626 669
604 653
601 652
615 649
617 656
603 636
602 628
618 626
614 646
588 626
583 622
595 618
594 621
578 598
572 583
583 574
572 585
540 556
529 544
535 532
529 530
510 502
502 486
511 477
501 487
469 459
458 447
465 436
459 434
441 408
435 394
447 388
440 402
419 389
426 404
455 425
476 462
484 474
500 496
531 521
537 558
520 553
523 562
541 568
539 575
525 555
525 550
542 550
533 563
504 538
497 531
509 525
508 530
495 509
492 501
506 499
498 513
471 490
464 482
475 474
471 473
454 447
447 434
458 427
445 436
419 412
415 406
431 403
428 404
413 381
409 370
421 367
412 378
386 355
379 346
389 338
385 338
373 317
373 312
395 342
405 363
402 377
422 410
459 453
480 481
485 489
496 504
521 539
521 551
502 541
503 545
519 558
519 553
505 532
500 523
512 537
502 533
476 510
471 503
482 509
480 500
465 477
459 467
469 478
455 470
425 442
416 431
423 430
416 415
399 387
392 373
401 383
377 374
363 349
358 342
369 346
357 336
357 316
355 308
369 324
345 320
339 300
338 296
351 302
342 298
350 290
363 306
399 355
401 391
415 407
437 439
477 483
486 507
499 510
510 523
535 556
519 567
518 555
520 557
535 567
523 561
521 541
521 535
536 554
513 554
507 536
506 533
521 542
509 536
505 512
504 507
518 522
496 522
484 494
477 484
484 482
467 467
458 439
449 426
457 435
427 427
415 400
409 389
416 388
398 374
391 347
383 334
390 343
362 336
355 317
361 325
388 352
396 376
418 390
438 419
471 468
464 492
472 493
481 506
502 526
496 528
498 516
499 514
512 533
487 529
480 508
480 503
495 511
485 506
486 490
488 489
504 510
481 510
475 491
475 486
487 491
474 480
471 458
466 448
476 461
450 453
444 431
445 426
458 431
448 425
448 407
448 403
463 422
441 421
436 402
438 399
451 404
438 394
435 372
425 358
432 369
407 363
408 351
421 362
454 397
474 431
506 460
558 505
583 568
585 593
603 620
636 646
655 678
656 679
665 686
689 695
690 722
666 705
660 701
669 694
669 700
655 679
656 674
668 668
658 682
624 655
613 644
617 630
609 626
586 596
575 576
583 563
570 573
538 545
528 537
537 531
536 537
524 519
522 511
536 509
529 526
501 503
491 496
498 489
494 489
477 465
471 452
483 446
478 464
459 453
467 468
497 490
519 526
526 537
545 558
580 582
592 626
584 627
594 644
621 658
632 679
625 667
627 662
648 666
651 695
626 678
630 683
649 687
655 701
647 687
650 685
669 689
664 709
635 685
625 675
630 662
621 656
598 623
585 601
589 585
574 591
540 558
527 543
532 529
522 521
504 493
495 474
506 465
494 471
465 443
459 432
469 424
471 431
471 427
485 444
528 481
549 537
551 555
573 587
610 617
629 651
632 652
643 664
670 679
671 708
651 694
650 695
665 693
666 701
655 682
655 676
672 678
666 697
641 676
638 673
654 671
653 675
637 652
630 639
644 653
634 647
604 619
596 609
606 610
600 597
582 570
579 559
594 573
582 566
551 539
544 530
556 533
551 522
534 495
529 485
550 509
551 521
539 522
555 547
590 587
609 612
616 621
630 640
659 680
661 698
644 690
648 697
667 712
666 709
652 687
647 678
659 691
634 687
614 659
610 653
621 659
613 657
610 634
604 625
615 640
587 635
575 609
570 601
579 603
563 591
557 564
551 553
562 565
528 555
512 524
507 515
521 521
505 509
501 484
496 473
507 488
483 489
483 479
492 493
520 523
524 541
538 545
551 563
578 602
564 619
567 613
573 621
592 638
581 635
581 617
579 612
597 633
568 627
556 600
546 589
554 590
539 581
541 563
536 554
553 575
525 570
512 541
510 535
521 538
503 524
496 496
493 488
502 499
472 491
460 464
452 452
458 450
446 442
443 419
438 409
448 423
422 419
419 404
427 413
455 441
462 461
480 472
498 496
527 539
515 558
520 555
528 565
547 584
540 584
540 571
540 569
550 586
525 584
516 558
513 551
523 554
509 543
505 521
504 516
514 532
486 526
476 501
474 493
482 495
467 482
462 457
456 447
464 459
436 451
428 428
427 421
438 425
426 415
423 394
422 388
432 403
407 398
400 377
400 372
413 377
404 373
410 365
443 383
455 427
452 444
469 469
499 493
518 525
519 526
528 535
552 545
555 576
535 564
532 566
547 566
546 571
532 549
528 537
540 530
534 546
507 525
502 521
513 516
512 522
497 498
490 485
503 478
496 493
469 471
459 461
465 450
461 450
444 424
438 411
450 404
441 417
413 393
406 388
417 381
417 385
406 366
405 358
421 356
418 376
401 366
407 381
436 401
455 434
461 442
475 459
503 476
505 508
485 499
484 504
500 506
503 517
490 499
487 491
500 486
491 499
464 475
455 467
466 461
467 465
454 445
452 438
466 436
459 451
433 429
426 423
436 416
434 419
421 397
418 387
431 383
424 397
398 374
388 365
396 355
397 360
388 342
391 340
407 340
402 356
377 337
371 332
380 325
376 325
360 301
353 288
362 282
352 292
328 275
329 280
354 297
374 330
391 350
411 376
444 404
454 444
441 443
448 456
469 464
475 480
467 468
468 467
483 468
474 481
446 457
439 450
450 443
449 447
439 430
439 425
453 444
450 446
430 430
429 429
442 437
448 435
443 421
448 419
469 441
471 447
458 436
467 443
492 462
503 466
502 456
508 457
529 480
527 484
507 467
508 468
525 477
526 472
514 452
512 446
528 466
523 471
509 468
520 487
555 524
569 543
570 545
582 560
610 597
603 613
603 608
614 621
639 642
637 647
642 633
644 631
661 652
637 652
628 629
625 625
637 631
622 624
617 601
607 587
614 600
586 596
574 572
568 563
576 564
555 548
546 519
540 507
558 527
543 534
550 527
565 540
599 567
606 580
622 579
636 592
663 624
648 638
651 630
658 640
680 660
680 673
694 676
705 691
730 728
713 741
710 731
713 736
729 750
713 742
706 719
696 708
699 717
658 700
634 662
616 643
614 634
587 612
573 579
562 564
569 576
537 568
525 541
520 532
527 533
511 519
506 495
504 487
517 503
494 501
490 483
494 483
511 493
502 489
504 472
507 471
524 493
502 493
500 477
504 476
520 484
510 479
512 462
513 460
532 485
518 498
526 499
541 519
569 551
570 566
581 567
590 579
611 611
593 621
593 610
600 615
616 628
603 621
598 599
591 589
594 598
559 586
545 558
540 550
551 555
536 543
539 530
548 537
569 564
548 566
544 548
543 541
550 543
530 527
522 500
534 490
524 503
499 486
495 478
510 476
516 484
507 466
507 459
524 456
521 474
497 455
491 452
506 451
514 465
513 459
529 474
562 496
577 543
571 552
583 576
611 595
623 620
618 612
621 613
641 615
638 638
613 619
607 616
619 611
618 616
603 594
600 584
614 579
609 598
582 578
577 575
590 572
590 579
575 557
571 547
584 542
575 557
547 532
539 526
550 520
550 524
537 502
534 493
550 489
544 505
517 484
511 479
523 474
523 478
510 458
508 450
526 453
528 481
509 474
519 493
548 515
558 539
562 542
567 547
585 552
584 577
559 560
554 557
573 559
572 562
556 537
549 524
560 518
550 530
519 505
508 497
521 494
525 503
511 483
507 475
521 472
512 486
484 463
476 456
486 448
483 450
469 427
465 418
478 415
471 429
446 408
440 403
450 396
449 402
444 390
447 389
470 400
476 433
468 438
487 468
525 499
543 531
542 531
550 540
570 551
567 576
543 560
540 560
553 557
553 561
539 538
534 529
547 545
537 542
511 521
506 515
514 520
515 516
500 494
500 489
511 504
505 504
482 483
478 478
487 481
490 476
482 459
485 455
503 474
501 477
479 459
475 455
490 463
484 452
466 427
462 420
477 440
477 452
466 452
478 473
508 507
516 521
513 518
518 526
541 558
523 564
511 548
508 546
522 555
514 553
519 538
519 533
535 551
513 553
509 534
506 531
518 539
507 534
506 516
501 507
518 528
495 527
483 501
480 494
494 500
483 492
480 470
474 459
489 478
463 473
453 450
448 442
457 445
452 444
454 426
456 423
475 446
461 458
467 458
485 482
519 520
531 546
550 556
564 572
590 608
574 620
575 609
579 612
596 626
586 622
584 602
582 596
593 611
563 605
551 579
546 570
556 574
541 563
536 539
533 531
540 544
512 539
502 515
504 513
513 515
496 502
491 478
486 468
496 481
468 475
459 451
456 444
467 447
453 436
449 414
446 407
459 424
438 429
442 425
457 443
487 476
490 493
502 495
512 508
532 540
512 546
510 533
512 533
526 543
514 536
512 516
510 510
521 526
495 521
488 500
488 496
501 503
490 497
490 479
490 476
503 495
477 492
470 471
470 465
481 470
468 460
463 437
457 427
468 442
442 438
438 420
439 414
451 419
438 409
436 389
453 384
444 399
421 385
419 385
442 396
458 425
464 433
479 451
509 472
516 508
498 501
498 507
514 509
516 519
501 499
502 493
520 491
517 511
490 488
483 483
494 479
495 486
484 468
483 462
500 461
496 481
471 462
466 460
479 457
480 463
468 443
465 433
479 428
472 443
446 420
438 415
449 408
448 413
435 392
432 384
447 381
443 399
422 384
425 394
452 410
469 442
476 451
490 470
519 490
523 524
505 516
506 523
522 527
527 539
516 523
515 516
531 515
525 533
500 514
497 513
511 513
514 523
506 508
508 505
521 503
516 521
494 506
494 506
507 503
504 506
495 489
495 483
509 479
506 498
479 476
477 475
490 471
490 475
478 456
477 451
495 453
493 476
480 472
489 490
521 513
536 544
538 547
545 556
570 570
572 600
551 588
552 593
566 594
572 607
560 588
557 581
576 583
569 599
543 578
538 574
551 571
548 575
538 558
539 555
552 555
550 576
524 554
519 549
530 542
529 546
515 524
512 515
525 530
516 526
489 503
484 497
496 502
492 493
477 470
472 460
491 481
488 486
474 480
485 498
514 530
529 549
532 553
545 569
569 603
572 617
559 612
560 616
579 632
580 630
573 616
576 615
591 633
583 633
559 612
556 608
571 617
571 611
559 591
558 586
573 604
553 602
540 579
536 572
548 577
535 568
532 545
530 536
542 550
515 545
508 524
510 523
523 529
508 518
504 495
501 486
513 500
482 494
473 473
480 481
509 510
514 530
532 539
549 562
582 608
572 632
578 630
588 644
611 666
606 671
611 660
612 659
628 680
603 680