716 759
723 762
701 763
691 749
686 747
696 761
666 763
658 756
656 754
666 762
648 762
642 744
635 742
639 761
607 763
601 749
600 749
610 759
594 753
589 736
603 732
594 750
562 728
551 712
557 702
553 703
536 678
532 665
551 664
555 693
541 689
550 706
577 725
594 757
596 748
609 744
638 745
647 761
631 757
635 755
651 753
658 762
649 751
649 743
664 743
658 761
630 751
623 750
635 749
635 760
620 744
616 738
628 738
619 756
589 731
579 724
587 715
583 718
566 693
561 679
574 671
560 678
530 648
524 640
535 632
536 636
522 611
517 597
529 587
522 599
493 571
482 559
490 549
486 548
469 521
464 507
477 500
473 517
455 504
462 519
490 539
509 573
514 581
528 599
558 621
565 658
549 655
554 668
577 679
585 700
576 690
581 690
603 696
605 722
585 705
581 701
594 696
594 702
579 679
577 671
593 668
587 684
559 658
553 650
562 640
559 641
544 616
540 604
553 598
545 609
516 581
509 571
520 563
518 564
504 541
500 529
515 525
507 538
480 512
475 504
484 495
481 496
466 473
463 462
476 460
472 476
455 464
464 478
494 498
512 531
517 540
533 560
565 604
573 625
560 624
568 638
591 663
600 673
595 666
600 669
620 694
616 697
592 675
589 671
602 676
598 668
584 646
580 636
594 651
581 644
549 613
543 605
557 609
552 598
538 574
533 562
544 573
533 565
504 537
496 526
505 526
501 515
486 490
484 481
498 496
478 492
467 468
463 461
475 466
462 457
459 434
456 425
469 438
444 435
444 422
454 434
484 465
487 483
501 490
514 508
540 548
526 566
528 562
535 574
558 598
555 606
562 599
568 604
588 630
565 632
560 613
558 609
572 618
560 612
559 592
559 587
575 606
551 605
545 583
542 578
554 583
538 572
533 546
529 535
540 547
511 539
501 514
496 505
507 508
492 497
489 475
487 468
500 482
474 478
467 455
464 448
475 451
461 442
458 420
457 414
470 429
448 427
445 413
455 423
483 452
487 471
503 480
517 501
546 545
537 567
544 569
556 586
579 610
578 622
591 621
599 629
616 653
590 652
582 630
580 625
592 633
580 626
579 608
580 605
596 626
571 623
563 600
559 592
566 593
548 579
540 551
531 538
541 551
514 544
513 526
512 521
524 527
511 517
507 496
504 488
514 502
487 494
478 470
475 461
485 464
469 452
464 429
460 420
468 432
440 424
431 402
432 401
450 418
449 429
464 437
499 460
509 504
499 514
509 530
534 548
547 575
544 572
550 578
572 586
572 612
550 598
546 598
560 597
563 606
551 588
550 581
567 578
562 596
536 575
529 569
541 563
539 568
524 545
521 534
535 527
529 542
502 517
494 510
503 500
500 502
483 478
479 465
491 457
482 469
455 444
447 437
458 430
456 433
442 412
439 403
454 398
444 408
417 384
411 379
429 381
436 395
435 393
448 410
484 436
499 484
494 493
507 517
534 539
547 567
545 567
553 576
577 589
578 618
557 605
555 607
569 606
566 611
554 592
553 585
573 587
570 606
543 584
538 579
550 573
548 577
533 555
528 542
541 537
531 548
502 521
492 511
501 501
496 502
479 476
473 462
484 455
475 466
448 440
440 432
450 423
447 425
432 402
427 390
437 384
426 392
399 367
391 359
403 352
405 359
397 349
403 355
433 378
450 425
446 435
464 462
496 486
512 518
515 522
527 536
555 556
560 590
545 584
549 592
567 596
571 608
560 591
560 586
577 605
571 604
546 583
544 579
558 588
555 581
540 558
539 551
558 570
551 567
523 541
516 531
526 534
522 523
504 496
495 480
508 492
501 489
476 465
471 457
482 461
478 450
466 430
464 422
479 440
474 437
453 417
452 414
466 422
467 417
458 403
463 407
490 441
485 462
489 468
504 492
534 525
534 541
548 545
561 562
593 604
577 619
577 612
580 618
598 634
588 633
585 614
582 607
596 624
569 621
561 598
557 593
569 599
555 591
550 568
546 558
558 572
529 565
519 539
515 531
526 535
513 525
510 503
507 493
518 506
491 499
482 475
478 467
488 471
475 461
473 440
471 433
485 449
460 445
452 421
449 414
459 417
444 407
442 387
440 380
455 398
436 403
441 399
457 418
488 453
493 474
509 484
524 505
553 547
541 567
546 566
556 581
581 606
577 615
583 606
586 609
602 632
577 633
571 611
571 608
584 616
571 610
565 585
562 579
578 600
555 598
548 575
546 569
557 573
541 562
537 538
532 528
542 540
513 531
501 504
497 494
505 495
489 482
484 459
480 449
491 462
464 455
453 429
452 422
467 430
455 421
450 399
445 390
455 403
429 396
421 376
423 374
441 390
440 400
452 405
470 427
499 471
491 494
501 499
517 520
543 550
544 564
556 564
585 578
588 611
569 606
566 603
579 602
579 610
566 590
562 581
577 576
571 593
543 569
535 563
544 556
542 559
527 537
523 525
535 516
528 529
500 504
493 497
503 490
502 492
487 469
482 457
495 449
488 460
461 436
454 430
465 422
464 424
449 402
444 391
458 385
450 397
423 373
415 366
425 359
424 362
414 346
418 349
446 364
457 404
449 410
461 433
483 449
497 479
501 485
513 499
540 516
545 550
528 545
531 556
551 564
556 579
546 564
546 560
564 560
560 580
536 561
534 559
548 557
551 566
537 546
532 535
545 530
539 545
514 523
511 520
522 512
521 516
507 495
504 486
519 481
513 495
485 471
476 462
486 453
482 455
468 433
464 423
478 419
472 433
447 411
442 406
452 400
449 402
433 381
429 370
442 367
438 386
422 378
430 395
460 415
477 448
482 454
495 471
523 492
528 527
514 524
520 538
543 550
550 570
543 561
544 559
562 564
556 582
530 560
526 557
538 554
537 559
524 539
522 532
536 548
527 544
500 519
493 511
502 514
498 504
484 480
480 470
492 483
483 478
458 453
452 444
460 445
451 429
436 407
437 400
450 415
443 411
419 388
414 381
424 385
423 377
410 356
403 343
415 357
410 354
387 333
385 332
400 345
410 355
414 360
428 379
459 422
456 445
460 448
472 467
498 496
497 510
508 509
517 519
541 550
521 557
516 540
511 535
528 546
517 542
516 523
515 518
531 536
507 535
501 516
498 512
512 518
498 510
495 488
492 480
504 495
478 489
470 465
465 457
476 461
463 451
460 428
456 418
465 430
442 427
440 409
440 406
452 411
437 403
435 382
432 374
444 388
419 384
412 363
410 357
423 363
414 360
420 352
429 363
457 402
449 426
460 433
475 454
502 484
504 500
515 502
525 516
549 552
533 564
533 555
536 558
550 570
538 565
536 546
535 542
548 559
522 554
510 530
510 525
525 535
514 529
512 509
510 504
523 520
498 515
491 492
490 487
502 492
488 483
486 462
482 454
493 468
467 463
459 440
457 433
468 438
455 428
453 408
448 398
460 414
435 411
432 393
428 386
438 389
426 380
424 362
426 363
447 391
434 405
443 409
458 430
485 462
487 477
497 479
507 495
529 531
513 544
515 538
522 546
539 564
529 562
529 547
549 545
543 565
518 550
513 543
525 539
525 547
513 528
511 520
527 516
522 532
495 508
488 502
499 495
498 499
483 477
480 467
493 459
485 472
459 447
451 440
461 432
459 434
444 412
441 402
454 397
448 412
424 391
419 388
432 384
433 389
421 370
419 362
433 358
429 373
408 358
411 368
436 384
454 415
460 425
477 446
510 471
514 507
501 506
511 526
537 543
546 567
541 562
544 565
563 569
558 589
531 568
524 563
535 557
533 563
518 542
514 533
529 530
524 547
500 527
495 523
507 519
505 523
495 505
499 500
517 499
511 514
486 491
480 486
493 481
492 485
481 466
480 457
497 455
493 472
470 452
466 448
479 443
478 448
464 427
460 416
472 411
464 423
439 402
436 400
455 405
466 427
470 432
486 452
520 479
532 521
522 525
533 544
559 563
570 589
570 588
578 597
603 611
604 639
583 624
581 625
595 624
596 631
583 612
582 606
600 607
594 624
569 603
565 598
579 594
577 598
563 575
559 565
572 579
562 572
535 546
528 538
539 541
536 531
522 509
518 499
533 513
525 509
500 486
496 480
509 485
506 476
487 449
482 438
499 456
493 454
469 431
466 427
480 435
483 434
479 427
489 439
520 479
529 503
521 508
532 527
558 557
569 571
568 570
576 581
602 615
591 628
585 617
585 618
602 632
593 630
599 618
598 613
614 632
591 632
584 611
582 608
596 616
584 610
580 588
577 580
590 594
562 588
552 563
548 555
560 560
546 550
542 527
537 517
550 531
524 526
516 502
511 495
521 498
510 492
508 471
505 463
518 478
492 474
485 452
483 446
495 451
483 444
484 428
490 433
517 469
508 491
519 496
534 520
562 553
564 571
574 572
579 583
605 621
594 639
595 631
602 640
621 657
610 655
610 638
615 639
631 660
607 658
600 637
600 635
614 644
601 636
597 614
594 606
606 622
575 614
569 591
568 585
579 590
566 580
561 557
557 548
568 561
540 554
530 528
527 519
536 521
520 509
515 486
511 478
522 491
494 484
486 460
482 452
492 455
478 444
474 423
470 415
485 435
467 443
477 446
491 465
519 497
521 515
534 521
547 540
573 579
559 596
564 595
575 609
597 633
592 639
596 629
600 632
615 654
589 651
583 630
582 625
592 632
577 623
574 603
591 597
583 614
555 595
546 583
556 575
554 578
539 555
535 543
549 535
543 549
516 524
508 517
517 509
516 513
501 489
497 477
512 471
506 485
479 461
472 456
482 448
480 452
465 430
461 418
474 411
467 424
441 402
438 402
457 408
471 433
474 440
489 459
521 483
532 526
522 530
530 550
556 568
569 596
566 595
574 604
598 614
594 637
568 618
563 616
580 617
580 624
566 604
563 596
579 593
573 610
547 587
541 582
552 576
550 579
535 557
530 544
543 536
534 549
506 522
497 514
507 505
501 503
486 479
482 468
497 464
491 478
463 452
454 445
463 436
461 437
446 415
443 405
456 401
449 414
425 392
419 387
432 383
433 391
428 382
438 392
469 415
483 460
478 468
491 493
520 515
535 546
536 549
547 563
575 584
580 618
563 611
566 619
583 623
585 633
573 615
571 608
587 608
580 625
555 603
552 600
565 597
565 603
552 581
549 572
562 569
554 580
526 555
520 546
531 539
528 540
513 516
509 506
522 519
513 512
486 487
480 479
491 482
489 473
473 449
470 439
482 453
473 447
448 423
443 417
454 421
451 412
438 391
429 377
445 395
448 405
441 407
455 429
487 465
504 489
511 498
525 517
556 560
563 583
551 583
561 600
586 626
593 636
589 629
592 631
610 654
592 656
580 634
574 627
590 637
577 631
581 617
578 608
591 624
563 619
552 594
547 586
557 588
541 577
537 553
532 542
544 556
517 550
508 525
502 517
512 519
497 508
492 484
489 474
502 488
477 484
469 460
465 453
477 458
464 449
462 427
459 418
473 432
448 429
441 408
441 405
458 419
456 427
469 430
485 451
518 499
512 526
521 533
533 553
557 582
558 598
572 602
577 612
604 651
588 663
590 655
590 657
610 673
600 670
595 646
592 641
607 661
578 654
571 632
574 631
583 634
570 625
565 602
566 596
574 609
549 604
542 580
538 571
547 574
531 561
526 536
516 522
526 534
498 527
490 503
485 493
497 497
483 486
479 465
478 458
488 472
462 466
455 444
451 434
463 439
450 428
445 408
450 410
471 438
460 453
468 456
481 476
515 515
516 531
529 538
543 557
572 600
558 617
561 613
576 630
596 650
587 652
592 641
592 639
604 658
578 655
572 634
571 628
585 636
570 626
566 604
585 600
581 619
553 600
542 584
556 581
556 585
541 561
537 549
551 540
540 550
515 527
507 520
517 512
514 512
498 488
490 473
508 470
502 484
476 460
469 455
481 448
480 452
467 431
463 420
476 413
469 425
442 402
437 399
453 402
463 423
466 426
480 444
512 469
525 513
514 517
520 535
547 554
564 585
566 589
573 598
594 607
591 630
570 618
569 620
584 618
586 627
575 610
577 605
593 604
589 621
563 600
562 599
576 596
576 603
562 581
559 571
574 566
566 580
539 555
532 548
542 541
541 543
526 520
523 509
536 503
529 517
503 493
498 488
510 483
511 488
498 468
497 460
516 460
517 482
496 464
490 460
503 455
502 459
490 440
491 437
514 448
520 482
511 486
523 508
551 530
565 562
564 565
574 579
599 597
603 632
585 626
582 630
598 634
602 649
593 634
591 629
605 628
598 644
570 619
562 614
573 608
572 613
559 591
554 580
567 577
558 590
532 565
525 557
535 549
532 550
517 527
514 516
527 530
519 525
494 502
490 497
502 502
500 493
486 473
482 464
495 479
487 477
464 456
460 451
474 458
473 452
461 432
458 423
473 438
465 434
441 414
442 415
464 434
476 448
480 453
495 473
526 518
534 542
524 546
534 565
559 594
569 607
564 601
569 609
592 640
584 654
573 637
571 637
584 645
570 638
567 616
562 607
575 622
548 619
539 595
535 589
546 594
532 585
529 562
526 553
539 568
513 563
505 539
502 534
515 539
502 531
501 510
499 502
513 517
486 512
477 487
473 480
483 484
469 474
465 450
461 441
473 455
448 451
440 428
438 423
450 429
437 419
436 400
436 397
457 423
444 438
455 442
472 467
504 503
509 524
523 530
536 550
565 592
553 611
557 608
567 623
589 645
583 649
585 637
586 636
601 657
575 654
567 632
566 628
578 635
565 628
562 607
560 600
573 616
546 610
535 584
532 575
541 577
523 561
514 532
510 521
523 537
498 531
490 507
488 499
499 502
484 491
481 468
477 459
488 473
461 466
453 443
451 436
464 440
451 431
447 410
444 403
455 418
431 413
425 393
425 391
445 409
447 422
468 434
483 457
512 500
502 522
510 525
524 544
548 572
547 583
556 582
565 594
587 625
566 631
564 616
565 615
578 623
564 614
561 595
580 591
573 608
546 592
540 583
550 577
550 583
536 561
533 551
548 544
542 559
514 534
506 527
515 518
514 521
499 499
495 488
509 480
502 493
474 468
464 460
474 452
472 454
456 431
453 421
466 414
460 429
435 406
429 403
440 397
440 402
428 383
428 376
447 377
449 404
437 402
448 424
479 447
497 481
501 488
507 499
537 518
546 558
534 558
539 571
561 582
568 600
560 589
560 586
578 587
574 607
549 586
545 583
558 580
558 587
545 567
542 558
557 554
550 569
523 545
516 539
524 530
524 533
509 510
511 504
525 498
516 510
488 485
480 477
490 468
487 469
469 444
460 428
474 423
468 437
447 418
441 412
452 406
450 409
435 386
431 376
443 371
436 382
410 359
405 354
420 352
426 367
426 366
440 384
474 411
489 456
482 464
493 485
518 501
530 528
530 527
542 542
565 554
564 579
542 563
539 564
553 562
553 569
542 551
541 546
558 549
553 566
529 546
526 545
540 542
539 546
526 525
523 516
537 531
528 526
501 501
496 495
508 500
506 491
493 469
491 461
506 478
501 476
477 455
474 450
486 457
486 450
468 425
465 416
481 433
476 432
452 410
448 404
458 408
454 398
443 380
442 375
461 399
464 412
454 414
468 435
497 470
512 490
513 494
524 510
551 548
542 565
539 560
544 570
563 588
554 589
555 573
553 568
565 584
543 585
538 566
542 569
555 577
542 571
540 551
538 544
552 561
526 558
517 533
513 527
525 531
510 522
508 500
505 491
518 506
492 501
483 478
480 471
489 473
474 463
470 441
467 433
479 447
454 444
448 423
447 418
459 425
446 417
443 397
441 389
454 404
430 401
425 383
429 388
453 412
456 428
473 437
483 454
509 495
504 521
507 520
521 538
552 572
550 583
558 581
565 589
586 617
564 622
558 604
559 603
572 611
560 605
560 587
559 582
571 599
547 598
541 577
539 570
549 574
535 565
532 542
528 534
539 547
512 541
502 516
498 507
509 510
493 498
489 476
485 467
495 480
468 472
460 449
458 442
469 446
456 437
453 415
450 408
461 421
434 416
426 393
424 387
436 393
425 387
426 375
439 389
466 429
465 459
475 465
490 486
516 516
516 530
526 532
537 547
561 583
545 596
548 589
555 595
572 610
561 605
560 588
580 586
574 605
549 589
543 580
555 577
555 583
542 564
539 554
553 548
548 564
521 540
513 533
523 525
522 528
506 504
501 491
515 483
508 496
479 470
470 463
479 453
477 456
462 434
458 423
473 416
467 431
440 408
433 402
444 396
443 400
430 379
428 372
447 373
449 400
436 398
447 419
478 442
495 475
498 481
511 496
539 515
546 553
526 545
528 556
550 567
560 587
552 575
555 573
573 574
569 595
544 575
540 572
553 569
553 577
541 558
538 550
553 547
549 564
522 540
514 534
526 527
523 530
508 507
505 496
518 490
509 503
485 481
484 481
495 475
493 477
478 455
473 445
487 441
481 455
456 433
449 427
460 420
458 422
443 400
439 391
454 389
451 408
435 400
442 416
472 437
488 469
491 475
504 492
533 513
539 550
526 548
532 563
556 576
565 596
558 586
559 585
577 589
572 608
548 587
545 585
559 582
559 589
547 569
546 562
561 561
554 577
528 552
522 546
533 539
531 541
516 517
512 505
525 519
515 513
489 488
483 480
494 484
492 475
478 453
473 443
487 458
479 454
453 431
444 420
453 423
451 415
444 401
443 394
458 413
453 412
436 401
444 414
473 445
490 465
494 472
507 491
536 531
542 551
529 550
538 565
561 590
568 599
562 591
566 593
583 616
564 617
552 597
549 593
562 601
546 592
543 572
542 566
563 588
536 585
525 560
520 553
530 556
516 546
511 522
506 511
518 523
491 517
481 492
478 485
490 489
476 480
474 458
469 448
481 462
455 458
447 433
443 425
453 429
438 419
435 398
431 389
444 404
420 401
415 383
418 385
440 406
441 420
457 426
474 448
505 493
496 515
503 518
514 535
539 563
537 575
546 572
553 580
574 610
553 615
549 599
550 598
563 607
551 601
550 582
549 577
563 596
537 593
530 571
529 565
541 571
527 561
523 538
520 530
526 539
497 532
489 507
487 500
495 502
482 493
479 471
473 461
491 481
466 476
459 453
457 446
467 449
452 438
448 416
446 409
458 424
435 420
430 401
434 403
455 422
455 434
469 440
484 460
513 503
502 524
506 523
521 542
547 569
550 585
557 581
564 590
582 618
559 620
554 602
554 600
566 607
552 599
550 579
550 575
562 594
537 589
530 568
530 562
540 567
526 555
522 533
539 526
531 540
503 520
495 509
507 501
506 505
492 484
489 473
503 467
499 482
473 460
466 455
478 449
478 454
466 434
464 425
480 420
475 435
453 415
451 414
468 416
478 435
479 435
493 452
526 476
539 520
529 526
538 546
564 563
575 590
572 588
579 594
601 604
602 631
579 615
575 614
588 612
589 620
571 596
569 589
590 590
585 608
559 587
552 581
562 574
560 577
543 552
537 539
550 531
542 544
513 518
505 511
517 504
514 506
499 482
493 471
506 464
496 475
466 448
461 444
477 441
476 445
461 423
456 411
469 405
460 417
434 393
427 388
441 385
444 397
441 393
454 407
487 431
500 475
492 481
503 503
530 523
543 550
541 551
550 560
575 575
576 604
555 590
553 591
567 590
569 598
556 580
555 574
573 577
568 595
543 574
539 571
553 567
551 572
536 549
533 540
547 537
540 551
513 527
507 520
519 513
517 516
502 493
499 482
513 479
504 491
478 468
472 462
483 455
480 457
466 434
461 423
473 437
465 431
439 408
434 403
447 410
449 408
445 401
455 413
486 454
496 479
485 482
493 500
520 530
535 549
538 552
548 566
574 600
577 616
559 606
561 611
577 623
577 619
563 599
560 592
575 609
566 607
541 584
537 579
549 585
547 577
532 553
527 542
543 559
528 560
515 536
509 528
519 531
505 521
500 497
497 487
509 500
483 495
475 471
471 464
484 470
470 461
467 439
464 431
477 445
451 439
441 416
436 408
447 413
436 406
438 391
445 398
473 435
466 459
477 465
492 489
521 522
523 540
535 543
546 558
573 596
558 612
560 606
566 614
585 632
575 631
576 614
574 610
589 628
564 627
551 600
546 593
563 604
551 596
549 575
547 568
559 583
532 576
522 550
516 540
527 543
513 531
505 505
504 498
519 515
490 506
481 481
482 477
494 481
480 471
474 448
470 439
482 453
456 447
447 422
444 413
454 417
440 409
439 391
442 392
465 423
454 441
465 447
481 469
510 502
512 520
523 523
534 539
559 577
543 591
544 585
554 597
578 620
572 623
571 607
570 604
583 623
557 619
550 597
549 593
561 599
546 590
543 568
540 560
550 574
521 566
512 541
509 531
517 533
501 520
496 495
493 486
502 498
474 489
465 464
463 456
472 459
457 447
453 425
467 416
458 430
432 412
423 401
433 394
432 397
417 375
413 365
426 357
422 372
400 355
401 364
425 378
441 409
447 417
463 438
496 461
506 503
494 504
500 522
524 538
536 564
533 561
539 566
560 573
559 597
535 579
530 576
542 572
542 578
528 559
525 550
540 545
534 562
506 538
498 532
508 525
506 528
492 506
488 495
502 488
495 500
462 469
454 461
466 453
466 457
452 434
447 423
462 418
455 432
430 410
425 405
436 400
435 404
423 382
419 372
431 366
424 379
399 356
393 351
406 347
408 357
404 349
414 361
443 381
457 427
456 439
472 467
501 488
514 518
515 521
526 534
552 552
556 585
538 576
539 582
554 583
555 593
543 574
542 568
559 568
555 587
532 568
530 567
545 565
546 572
534 553
533 545
549 544
543 559
517 536
512 530
524 523
522 526
507 503
504 493
518 489
510 502
484 479
479 472
490 466
489 469
476 448
473 439
487 438
479 450
454 427
448 420
460 414
458 416
444 396
442 389
459 409
459 417
448 415
460 434
490 469
507 491
512 499
525 518
554 558
560 579
544 574
546 583
568 607
580 617
572 606
573 606
591 626
585 628
560 606
557 603
570 610
567 604
554 582
551 574
564 588
554 584
527 558
522 550
532 553
527 541
509 514
503 502
517 515
500 515
484 488
478 478
488 480
473 469
468 444
463 433
474 446
447 439
437 415
432 407
443 412
431 403
428 382
426 373
438 388
414 383
407 362
407 360
425 375
425 386
439 390
455 412
488 458
481 483
489 488
499 506
525 534
523 545
531 542
537 550
558 579
537 585
533 568
533 566
546 575
534 569
533 550
532 546
547 564
522 562
515 540
512 535
525 541
510 532
507 510
504 501
516 515
489 509
481 484
478 477
489 481
476 471
471 447
468 439
480 454
455 448
447 426
447 422
458 427
445 419
442 399
435 387
443 398
417 394
415 377
415 372
427 378
417 375
422 367
433 379
461 420
454 444
466 452
483 475
510 507
512 523
523 526
535 542
560 579
543 593
545 585
550 591
565 604
552 598
553 584
559 587
573 607
547 604
541 584
540 580
551 588
539 579
536 559
534 552
545 567
519 560
510 536
507 528
511 526
493 512
491 490
490 484
502 499
476 492
469 469
468 463
479 468
467 460
465 441
483 436
476 452
452 436
445 426
456 421
454 426
442 406
439 398
456 396
457 421
443 416
451 434
480 456
499 491
509 504
522 522
551 541
559 580
544 579
549 593
570 606
579 627
573 620
576 619
595 620
591 640
565 619
559 614
570 608
570 614
556 594
554 585
570 580
563 596
536 573
528 564
537 556
534 557
518 532
507 513
517 502
512 515
486 490
478 481
487 471
483 471
467 447
462 434
474 427
467 439
440 414
433 408
443 401
441 404
427 382
424 371
437 365
431 379
407 360
408 364
426 372
441 400
448 410
472 437
505 463
515 504
503 506
510 524
534 540
546 566
544 565
552 572
576 583
575 609
554 593
552 594
567 593
569 602
557 585
557 580
575 582
571 600
546 579
541 576
554 571
552 575
538 552
533 541
547 537
539 549
512 524
506 517
517 510
514 512
499 489
494 478
507 472
498 484
471 458
463 449
473 441
469 442
454 419
448 407
459 401
450 411
423 387
419 383
435 385
445 404
446 407
462 427
495 472
505 497
497 501
507 521
535 551
547 567
547 567
558 579
580 608
577 615
556 600
559 604
573 614
572 610
559 590
557 582
575 602
570 602
545 580
542 576
555 583
553 575
539 552
534 541
547 555
537 548
510 522
504 514
515 517
511 507
496 483
492 473
504 486
483 480
471 457
468 450
479 455
463 443
460 421
456 412
475 430
447 422
435 395
430 388
441 394
433 394
443 391
458 408
492 453
486 480
497 487
511 510
539 541
540 557
550 557
560 569
583 603
566 613
563 600
563 601
577 610
565 605
564 586
564 582
581 602
557 602
550 581
549 577
561 584
548 576
545 553
541 544
554 559
527 553
518 528
514 520
525 525
510 514
506 491
502 482
513 496
486 490
478 467
475 460
486 465
473 456
471 436
468 428
480 444
455 438
447 415
445 409
458 415
449 416
458 413
471 430
494 468
486 491
498 499
514 521
540 550
539 564
549 565
559 579
583 614
567 625
566 614
570 617
585 629
573 624
573 606
573 601
587 620
560 616
553 594
551 587
558 589
543 580
543 560
541 553
550 566
521 557
511 531
508 522
518 524
502 512
498 489
495 480
504 493
477 485
468 461
466 453
475 456
461 445
458 423
456 416
466 429
440 423
432 400
430 394
441 399
431 393
434 384
464 396
471 436
464 448
475 467
503 490
518 521
519 526
530 539
558 555
564 592
548 587
549 597
565 602
569 616
557 599
556 592
571 589
568 607
541 586
535 582
546 577
546 583
533 561
528 550
542 544
536 558
508 533
499 524
508 514
505 516
489 491
484 479
497 470
489 482
461 456
453 448
462 439
458 440
436 412
432 401
447 396
441 409
415 385
407 378
417 370
414 372
400 352
401 349
423 358
431 394
424 400
436 424
467 447
484 480
486 484
497 498
524 516
529 551
513 545
515 554
532 559
534 570
521 552
519 544
534 541
528 557
502 535
497 531
510 527
506 530
496 511
494 503
516 506
509 520
483 496
478 490
490 484
489 488
476 467
475 459
491 457
485 471
455 443
448 436
461 431
464 437
447 414
443 405
462 405
453 417
426 392
419 385
430 378
429 381
418 365
420 363
442 375
450 411
442 416
462 445
493 470
510 502
514 509
527 525
556 547
563 584
550 581
554 592
573 598
573 608
568 596
570 595
587 615
581 615
559 595
556 592
569 599
568 593
554 572
555 566
568 581
556 574
528 548
521 539
531 541
527 530
512 507
507 494
516 503
511 502
485 478
480 470
491 473
487 464
473 441
469 432
482 445
473 440
448 416
443 409
454 413
451 405
440 387
442 388
466 420
463 441
469 447
480 469
510 503
514 524
530 531
544 551
571 588
556 605
558 599
557 603
573 617
567 620
564 601
561 596
582 619
557 618
550 596
546 590
559 596
545 589
542 566
538 557
549 570
522 563
512 537
507 529
518 532
503 521
499 497
494 487
505 499
478 492
467 465
463 458
474 463
466 458
462 434
457 424
467 437
440 430
430 405
427 398
437 401
424 391
422 372
424 369
445 397
433 413
442 418
461 442
491 477
495 498
508 504
520 523
548 563
535 582
540 579
549 592
571 614
564 617
561 598
560 596
579 620
555 619
549 597
548 593
560 601
547 593
545 572
543 565
555 581
528 575
519 550
516 541
527 544
511 533
508 510
505 501
517 515
489 506
479 480
478 474
493 481
480 472
475 449
471 440
480 453
453 444
445 420
441 411
450 413
435 403
431 381
431 378
446 399
431 409
438 411
456 433
486 468
491 488
506 497
522 518
549 559
537 578
543 579
555 594
577 618
572 622
575 612
596 614
591 634
564 619
558 609
570 606
570 612
556 592
554 582
569 577
563 593
535 568
527 559
536 551
533 553
517 529
513 516
525 508
518 519
489 493
480 485
489 477
488 479
474 455
469 443
483 436
475 448
448 423
440 416
450 408
447 411
432 390
428 379
443 374
440 392
422 382
429 397
457 417
477 451
482 461
496 480
528 503
537 544
520 539
526 556
552 573
568 602
564 598
569 601
590 606
587 628
563 607
558 605
571 602
572 608
558 589
556 580
572 577
566 593
538 568
531 561
542 554
540 556
522 530
519 519
533 513
532 532
504 507
496 498
506 490
504 492
489 469
484 457
496 451
488 464
461 440
454 431
463 422
460 423
444 401
440 390
453 386
448 402
428 389
434 400
461 419
479 451
484 460
498 479
529 504
538 544
527 545
535 563
560 579
570 603
566 597
570 600
590 607
585 626
559 606
554 602
567 598
565 603
552 582
549 573
563 571
554 584
521 553
514 544
525 536
525 540
510 516
505 504
517 515
506 507
479 481
472 472
481 474
478 463
462 439
458 428
469 438
461 433
437 411
432 405
442 408
439 398
425 376
419 366
431 378
423 374
401 354
403 357
426 379
440 395
446 403
465 427
498 473
508 498
500 503
511 523
535 551
547 566
548 567
562 583
586 614
571 624
562 608
561 607
575 617
563 611
561 591
559 584
574 601
548 598
539 574
535 568
547 573
533 564
529 540
524 530
537 543
510 537
501 511
496 502
507 505
492 494
487 469
481 457
491 469
463 462
454 437
450 428
460 430
444 419
440 396
434 385
444 395
416 388
407 364
405 358
419 367
413 369
424 368
439 387
471 432
466 460
478 468
494 491
522 523
524 539
536 542
546 557
572 593
556 607
555 597
558 600
574 612
562 607
559 586
557 580
570 598
545 595
539 573
537 567
549 574
530 559
524 534
523 527
537 543
510 536
500 510
497 501
506 503
490 490
481 462
483 458
493 470
463 459
459 439
459 434
468 436
456 427
450 404
446 397
461 414
437 410
430 389
428 381
439 385
428 378
429 365
437 373
464 411
457 434
470 443
487 467
516 501
518 519
531 524
543 543
569 582
554 597
558 594
565 601
582 618
574 616
578 605
579 603
589 620
562 614
555 591
554 586
565 592
550 582
547 561
563 553
554 568
525 547
516 534
525 526
523 527
507 503
502 490
516 481
509 494
481 469
471 460
481 452
479 454
463 430
456 417
469 408
459 419
431 394
422 386
431 377
427 378
411 355
407 344
421 338
416 354
398 341
402 356
429 376
447 410
453 421
470 441
502 465
511 506
499 508
499 519
522 533
535 559
532 556
536 559
555 563
552 584
526 564
519 559
531 554
530 559
515 539
512 530
526 525
520 539
493 515
486 508
494 499
491 501
475 476
469 463
480 455
468 464
441 437
434 432
449 428
447 430
432 406
427 395
441 389
433 400
408 377
402 371
414 366
413 369
400 349
397 339
409 333
402 344
377 322
372 317
386 314
391 327
390 326
404 342
438 369
452 415
448 426
463 452
493 475
508 506
508 510
520 525
548 546
554 581
537 575
539 582
556 586
559 596
546 579
546 573
562 574
557 592
532 570
528 567
541 563
538 567
524 545
519 534
531 530
521 540
494 515
486 506
496 498
492 499
477 475
471 463
483 476
474 469
448 444
443 437
454 442
453 435
440 414
437 406
449 419
440 412
410 385
400 373
408 375
408 368
395 346
391 336
405 355
404 362
392 360
403 379
432 412
447 432
451 439
464 457
491 496
495 514
482 511
489 525
512 548
519 555
513 545
513 544
526 561
509 562
501 544
498 541
510 548
496 541
495 522
493 515
507 532
482 529
475 506
473 500
485 506
473 498
472 478
470 470
484 484
459 479
451 455
448 447
451 444
435 433
436 413
435 408
449 422
424 417
417 395
414 389
426 394
412 385
410 364
407 357
420 371
397 367
393 348
394 348
415 367
416 380
433 388
451 412
486 460
481 486
489 491
501 512
530 544
536 565
547 566
556 578
580 612
561 619
558 605
557 604
571 614
559 607
557 588
554 582
568 600
543 597
537 575
536 570
549 576
534 566
530 543
526 533
531 541
503 532
499 512
496 504
506 507
493 496
490 474
485 464
495 476
469 468
461 443
459 436
468 438
454 427
450 405
447 398
460 411
433 405
426 382
421 374
430 376
419 368
423 355
428 358
449 387
438 405
449 411
468 437
497 472
501 492
514 497
526 515
551 553
536 568
540 563
548 573
566 591
556 590
556 574
557 573
570 592
545 588
539 568
540 564
553 573
540 564
537 545
555 540
547 556
521 538
514 526
524 520
523 523
508 501
504 490
519 483
512 496
485 471
477 465
487 457
486 460
471 439
467 428
482 422
476 436
450 412
436 399
446 392
446 397
427 372
426 364
447 365
442 379
418 357
414 358
432 363
445 387
449 394
468 416
503 443
516 489
507 494
514 514
544 537
557 565
555 563
559 568
583 577
582 601
557 582
550 578
562 573
563 580
549 562
548 554
564 553
559 571
533 549
527 545
539 539
536 543
522 522
520 512
534 506
526 520
497 493
490 486
502 480
506 488
494 468
488 457
503 453
496 467
472 445
466 440
478 434
477 438
464 418
461 409
475 406
468 419
442 396
435 390
446 385
445 389
434 371
435 371
460 384
469 422
463 431
477 456
506 480
522 512
522 517
530 531
557 549
563 584
547 579
550 588
569 593
572 605
560 588
558 582
574 583
567 599
541 578
537 574
550 570
549 576
535 555
532 547
547 545
538 557
510 531
504 523
513 515
509 515
493 491
488 478
501 491
491 484
465 459
458 450
467 452
464 442
449 418
437 403
447 413
442 411
421 391
416 384
427 390
426 382
411 361
409 353
424 369
420 369
403 355
410 366
437 395
454 416
462 428
479 452
511 498
520 523
511 526
521 545
548 574
559 589
558 588
564 595
586 624
572 629
562 612
563 610
575 618
567 617
572 604
575 602
591 621
567 620
560 598
556 591
567 596
552 585
546 560
539 547
549 558
520 550
508 522
502 512
510 514
494 502
490 477
485 467
494 478
467 471
458 446
454 438
465 441
451 432
447 411
444 403
457 417
432 413
426 391
426 389
443 401
441 408
454 411
472 433
506 481
500 509
512 517
526 540
553 571
553 587
563 587
572 598
595 632
575 641
573 628
575 629
589 640
577 634
576 615
573 609
588 627
562 623
554 600
551 594
561 598
545 587
537 560
528 546
536 557
511 551
500 523
494 513
502 513
486 499
480 474
475 463
484 474
457 466
448 441
444 432
452 434
438 424
433 402
429 392
439 405
415 400
407 377
405 370
416 375
406 370
411 360
420 372
448 412
442 437
455 448
475 473
503 508
505 525
517 529
529 546
553 584
539 598
541 591
546 596
560 609
551 607
555 594
556 591
568 609
542 604
536 583
536 579
547 586
534 577
531 557
548 551
541 566
514 546
506 535
516 527
515 530
500 507
496 494
510 487
502 499
475 473
466 465
475 457
474 460
459 438
456 428
470 422
463 434
437 411
429 405
438 396
431 394
417 373
419 371
444 379
452 414
444 418
456 444
486 468
504 503
508 512
521 528
551 548
558 587
544 585
549 598
569 607
575 623
564 610
564 605
580 603
575 620
548 598
542 593
554 588
553 593
539 573
536 563
550 558
544 572
517 546
509 538
518 529
514 529
497 504
494 493
511 491
506 503
477 477
470 469
479 461
477 463
463 442
462 434
481 434
477 450
454 429
448 423
457 414
454 415
438 393
434 385
451 385
452 410
440 409
453 431
485 457
503 493
509 504
524 523
555 547
564 588
551 588
559 603
581 617
589 637
582 626
584 625
602 627
597 646
572 623
567 620
581 616
580 623
567 603
564 595
579 594
571 607
544 582
538 574
548 567
545 569
530 545
526 534
540 530
531 542
504 516
497 507
507 499
505 501
491 479
488 469
501 483
493 477
468 453
463 446
473 450
470 440
456 418
452 409
467 423
462 423
444 412
453 425
481 457
491 472
496 481
513 504
546 548
554 573
543 574
552 592
578 618
587 629
581 622
584 626
602 649
595 651
571 629
567 624
580 631
577 625
564 605
562 598
576 614
553 608
541 585
539 580
555 589
539 578
533 553
528 540
540 552
512 544
503 518
496 508
506 511
491 500
487 476
482 465
493 477
467 471
459 447
456 440
467 444
453 434
450 412
446 404
458 418
433 413
426 391
426 387
440 398
431 400
445 405
468 432
502 480
496 508
507 516
522 538
549 572
550 588
561 590
572 604
597 638
579 650
578 637
580 639
595 650
583 644
580 624
578 618
591 635
565 631
559 609
562 608
573 614
557 603
551 578
546 567
557 580
528 573
519 546
514 538
524 540
508 527
503 503
498 492
504 500
477 491
472 471
470 463
480 466