738 761
726 758
694 763
691 762
703 761
697 759
682 762
683 762
705 760
696 758
661 762
655 762
670 761
670 759
651 762
643 761
652 756
643 758
615 763
612 762
622 757
620 759
609 762
616 761
642 755
641 758
621 762
631 762
658 758
663 759
646 762
643 760
660 756
653 758
622 763
612 762
623 758
623 759
613 762
615 759
632 755
623 758
597 763
601 762
620 758
619 759
601 761
599 757
619 756
598 758
580 762
568 762
584 758
573 758
574 762
571 755
589 756
569 758
575 763
587 762
611 758
602 759
608 761
614 756
637 756
606 758
592 763
588 762
604 757
591 759
588 759
584 753
603 756
578 758
578 763
579 762
599 758
586 759
587 757
588 753
603 756
569 758
560 762
560 762
578 757
562 759
555 754
553 751
575 756
558 758
563 762
571 762
600 758
601 759
613 757
620 752
636 757
607 759
601 763
601 762
614 759
592 759
588 752
588 749
610 757
585 759
576 762
574 761
592 758
580 759
579 751
571 747
582 757
553 759
547 760
547 759
556 758
537 758
536 746
539 745
560 757
536 759
538 760
550 758
579 758
576 759
578 748
576 745
594 757
567 759
561 758
555 755
562 758
546 759
546 743
549 742
563 757
533 759
524 753
528 752
549 758
533 759
529 740
528 739
545 757
520 759
511 751
507 749
520 758
507 756
508 738
508 737
521 757
499 759
508 750
525 751
552 758
544 757
550 738
579 738
578 757
551 755
541 748
557 748
559 758
546 741
545 734
561 735
557 757
533 746
534 746
553 746
551 756
537 737
539 731
561 733
558 757
526 740
519 739
537 739
543 752
530 732
525 724
543 724
541 750
520 732
524 731
544 733
553 750
551 733
564 730
594 732
593 756
563 737
561 735
578 732
578 738
557 709
551 699
570 697
569 721
546 699
543 695
556 693
561 703
550 681
553 673
569 668
559 689
529 665
526 661
542 656
540 660
519 634
516 626
536 624
533 645
505 620
500 620
517 617
531 634
532 621
542 622
565 628
563 655
541 635
540 634
554 628
545 631
526 606
524 598
543 597
537 616
505 593
503 593
523 592
529 603
517 579
512 573
529 575
524 597
499 575
495 571
503 564
502 571
490 550
494 547
517 550
505 569
475 547
474 545
497 547
507 559
499 543
507 549
539 560
545 591
527 574
525 575
538 575
541 584
527 561
526 554
539 552
528 573
503 553
505 554
527 554
526 562
512 543
512 540
533 564
526 564
495 540
491 539
510 550
512 546
499 523
493 516
507 538
501 540
477 520
477 519
488 526
482 519
473 502
482 504
513 536
518 545
499 534
506 541
531 557
536 556
521 533
514 527
528 547
518 547
491 524
486 519
497 529
498 525
489 507
493 506
513 529
490 532
477 513
476 511
492 521
476 512
462 482
456 476
472 497
446 499
437 475
429 470
442 479
428 474
429 453
428 448
444 472
422 479
431 470
442 477
476 500
468 501
469 483
475 487
498 514
472 515
458 489
449 484
467 496
452 489
452 466
450 463
469 491
446 495
443 477
450 480
466 491
449 485
452 467
455 467
473 490
441 488
429 465
432 467
450 479
438 472
437 452
435 452
453 476
432 481
434 466
445 473
471 494
472 500
485 491
497 498
510 521
487 528
489 512
495 513
513 523
492 512
484 491
485 489
506 515
484 518
477 497
477 500
499 515
492 514
495 495
494 492
505 517
486 525
486 507
490 506
502 514
483 506
484 489
488 489
508 515
479 513
470 494
479 498
509 518
509 521
515 505
520 514
548 549
533 558
539 545
542 544
550 554
534 548
533 527
534 525
546 544
511 541
505 524
513 525
536 540
524 532
519 512
519 515
539 541
515 542
509 520
503 514
512 523
501 517
502 498
529 500
515 519
483 506
481 500
504 503
514 517
505 501
512 508
545 517
554 551
536 536
530 535
541 536
545 547
532 525
529 516
539 509
526 530
499 511
499 512
519 512
518 520
503 503
507 501
531 504
530 529
499 506
488 505
505 505
509 516
496 494
491 483
501 482
497 506
473 487
473 489
491 489
495 503
496 496
512 503
546 514
550 544
522 529
523 535
544 536
549 546
530 521
520 512
536 513
535 538
512 520
511 519
523 519
529 535
524 519
529 518
549 518
538 540
509 522
510 523
529 524
530 532
505 505
500 500
522 503
523 529
499 510
494 511
515 517
531 536
533 527
546 531
570 539
570 572
551 558
554 561
576 563
574 569
551 544
545 538
564 540
562 564
537 543
532 544
549 546
555 558
549 541
550 537
570 544
559 565
531 543
529 540
541 534
533 537
512 513
507 506
524 506
515 523
481 498
476 497
498 500
510 516
506 501
511 503
533 513
533 540
512 523
510 522
519 516
512 521
494 497
492 492
508 513
491 506
460 485
460 486
483 502
489 499
474 478
470 475
488 499
485 503
460 482
453 477
462 485
460 479
447 458
447 454
461 473
452 476
432 461
443 470
475 491
486 495
480 484
486 487
514 518
514 525
494 510
486 507
491 510
491 505
478 482
475 476
488 498
468 502
463 486
468 489
486 501
472 497
472 479
476 480
497 505
470 505
460 484
457 482
475 495
465 491
464 468
460 465
478 490
461 500
470 490
479 495
504 516
500 521
515 514
524 518
545 543
513 543
502 522
499 519
516 529
500 520
494 497
491 494
512 521
492 527
492 509
491 509
506 521
496 518
501 500
501 497
513 518
481 519
476 498
478 498
496 507
478 499
474 479
478 481
506 513
492 523
496 510
503 517
527 536
524 537
529 521
526 518
537 541
508 542
503 522
506 521
520 530
505 525
507 509
514 512
537 539
510 540
500 520
500 518
517 530
505 523
488 494
489 493
510 519
490 522
487 503
485 501
503 517
502 519
517 510
532 520
557 553
537 566
545 556
557 562
579 576
561 568
556 551
557 550
575 574
548 573
538 549
531 545
551 559
545 558
550 541
548 538
560 565
534 566
533 546
535 544
543 549
522 539
521 520
522 519
539 541
506 536
494 516
500 517
526 534
525 534
533 521
558 530
562 564
544 556
544 551
559 549
553 557
543 542
541 534
559 531
549 549
513 525
507 526
526 526
533 537
520 515
513 509
533 512
533 537
509 518
504 515
510 511
510 521
499 501
500 496
518 492
504 512
474 493
474 494
496 496
506 510
497 495
508 504
544 516
555 551
537 537
533 539
547 541
555 554
544 534
544 528
557 525
548 550
526 533
527 536
548 536
545 543
527 525
530 522
552 523
549 546
515 521
505 521
522 520
527 529
513 507
505 497
516 496
509 517
483 496
479 493
488 486
483 494
471 474
481 477
515 488
521 520
499 511
505 519
531 523
537 535
520 511
510 504
525 504
518 524
490 501
482 496
491 493
494 506
486 488
490 485
507 485
493 505
465 486
464 484
479 480
477 485
456 462
460 464
481 467
477 488
449 465
439 462
454 462
460 472
451 454
453 452
472 457
478 492
471 486
488 500
513 504
519 520
514 510
523 513
548 520
545 543
512 520
505 520
524 520
528 530
517 509
513 504
529 533
530 537
508 521
508 519
519 527
514 523
503 503
504 499
522 520
508 517
477 497
475 495
495 508
496 502
482 482
477 479
498 503
499 510
485 497
492 503
515 525
531 533
531 522
540 524
559 547
545 551
520 532
520 530
536 539
529 528
509 505
502 498
524 523
509 529
497 509
491 508
509 522
500 519
503 497
498 491
507 511
478 514
476 494
478 494
497 506
476 496
469 474
467 471
486 496
465 498
460 479
464 484
493 505
497 513
515 505
524 510
546 540
524 547
524 531
527 531
536 538
517 529
513 508
513 506
532 529
503 529
494 509
494 509
515 524
506 519
504 497
499 494
513 516
487 518
483 498
482 494
491 502
476 496
478 478
480 477
496 499
464 497
458 477
461 478
488 496
478 492
483 477
491 485
522 521
513 534
519 522
524 527
541 541
531 539
534 520
532 516
541 535
506 533
500 512
504 512
522 522
507 515
505 498
507 499
529 526
504 527
494 505
491 502
506 512
494 506
492 484
486 479
497 501
470 502
466 483
469 480
479 488
463 480
461 461
462 460
480 483
450 481
449 468
466 479
500 504
502 509
511 497
515 503
535 532
513 536
511 518
508 513
516 520
499 512
500 493
504 494
519 517
490 519
488 502
495 505
516 518
500 508
496 490
517 491
518 521
493 507
486 497
494 493
495 502
484 483
487 479
505 478
497 500
469 481
469 484
490 486
496 497
488 483
498 489
535 504
551 542
538 533
542 541
561 546
570 562
562 545
561 539
574 536
565 558
535 537
533 538
551 536
551 546
538 528
541 527
567 531
567 556
536 536
529 536
546 535
551 546
538 524
532 516
546 515
539 538
514 519
510 517
521 512
518 520
503 499
507 497
533 501
534 529
514 518
521 528
552 538
565 554
554 536
552 534
570 536
567 560
538 537
528 531
534 526
532 532
519 511
516 503
533 502
527 528
502 512
503 514
523 515
522 522
503 500
499 494
518 496
514 518
484 494
475 491
487 489
490 498
479 478
477 471
491 473
488 499
473 488
487 498
515 506
525 523
520 513
534 521
561 529
556 551
523 528
514 525
527 520
527 528
510 502
502 494
516 495
512 519
490 501
489 500
503 497
502 506
489 486
492 483
510 485
498 504
466 482
463 480
481 479
482 486
462 462
450 451
468 475
468 480
449 465
454 470
480 491
496 500
497 491
509 497
530 523
524 528
499 511
499 512
516 522
509 512
487 486
482 480
501 504
498 508
471 486
469 487
486 500
491 499
484 481
482 476
495 498
485 499
461 480
463 480
475 487
469 479
454 458
451 454
470 477
448 477
431 455
430 456
456 474
458 479
472 469
479 475
505 506
486 515
489 501
490 501
500 509
482 502
479 479
478 476
492 494
459 493
453 474
455 474
477 488
466 484
465 464
465 465
485 490
461 494
454 471
448 468
462 477
448 472
448 451
448 448
459 468
428 469
423 450
430 453
454 469
447 468
457 459
472 470
503 505
489 515
488 499
487 500
505 513
496 511
494 488
488 482
496 501
468 502
466 484
471 483
488 496
474 491
478 476
485 480
507 506
479 506
470 486
469 484
487 496
477 490
473 467
466 464
479 485
454 487
452 468
453 466
470 479
465 482
479 474
494 483
520 514
495 521
494 506
499 508
519 520
501 510
489 483
483 479
496 501
473 503
469 483
462 477
472 484
464 482
470 467
472 466
486 490
458 492
452 472
457 472
471 480
452 469
445 448
442 445
458 468
430 466
421 444
424 446
450 465
454 471
468 463
479 472
500 504
481 511
483 497
488 496
498 504
478 493
472 471
492 470
485 492
460 481
454 476
470 475
478 489
470 471
468 465
485 466
481 490
458 472
455 471
465 466
462 474
446 452
445 447
465 446
457 467
426 447
424 449
450 456
467 477
467 466
476 471
504 481
511 513
492 500
489 500
500 498
498 506
484 485
483 478
498 474
487 495
459 476
460 479
482 481
486 492
472 473
471 470
493 473
492 499
466 478
457 475
468 473
470 482
458 461
456 454
469 452
460 474
436 457
441 463
467 467
476 485
473 475
484 480
515 491
513 516
483 495
480 497
495 496
497 505
480 480
473 471
486 471
481 495
460 478
462 480
477 479
480 491
470 474
474 474
496 477
488 498
459 478
456 477
475 478
478 486
461 464
457 459
475 461
474 486
455 471
462 478
489 488
511 514
513 507
526 512
549 519
544 544
519 527
520 529
538 528
535 533
517 510
514 506
537 511
537 536
512 517
508 518
527 520
534 533
527 516
528 513
544 516
537 539
513 521
514 522
530 518
526 525
511 505
513 503
539 532
540 538
521 525
530 536
562 559
577 565
572 550
572 550
589 574
583 578
557 556
551 551
559 556
553 549
539 528
541 526
562 549
554 551
526 532
527 533
548 547
550 541
532 518
526 513
542 535
536 537
510 515
503 510
513 518
514 515
507 498
517 502
544 532
534 546
535 537
543 543
569 561
558 558
557 541
556 540
575 564
548 564
536 539
529 536
544 547
534 543
539 525
538 522
554 547
528 550
527 533
529 532
542 541
524 534
522 513
521 510
541 533
511 532
498 509
495 507
517 522
517 525
528 513
534 518
560 550
545 562
549 548
553 550
566 560
550 555
549 534
548 531
561 550
527 547
517 525
518 525
538 538
527 533
525 513
523 512
543 538
520 542
516 521
503 514
522 526
513 522
515 502
510 495
521 518
493 519
491 501
497 502
516 514
507 514
518 505
532 514
562 548
538 552
530 534
534 535
552 548
538 540
532 516
521 509
534 532
510 534
508 515
510 513
521 523
510 521
515 505
520 506
536 528
501 526
494 508
499 507
518 520
500 508
490 483
490 484
510 510
488 514
487 496
489 497
512 516
514 522
531 515
542 523
562 552
538 559
541 544
548 546
564 555
542 542
536 523
537 523
556 548
531 549
524 528
525 530
546 545
538 541
542 525
565 525
556 551
530 539
529 533
544 531
541 536
522 515
523 511
545 512
544 536
513 513
506 515
530 521
547 542
548 531
556 532
578 540
581 572
560 556
560 558
571 552
562 558
544 535
541 526
559 524
549 542
515 520
513 522
533 523
540 534
525 511
516 504
529 500
527 525
502 506
495 502
500 497
500 507
488 486
490 481
507 479
497 500
472 485
481 493
512 503
526 521
517 508
525 512
554 521
556 549
529 528
517 524
527 521
529 529
515 507
514 500
529 500
521 524
496 504
500 510
520 509
518 517
501 497
503 496
527 499
522 520
488 496
480 496
498 495
503 506
489 483
484 475
498 477
499 503
483 491
493 499
518 505
526 525
526 516
535 519
562 525
553 547
520 527
516 526
534 524
534 531
515 505
507 499
529 504
528 530
507 513
504 511
515 510
516 519
508 501
511 498
531 502
515 520
486 499
484 497
502 495
498 498
477 475
475 472
497 477
496 501
476 485
478 490
506 501
523 521
522 509
527 510
543 535
537 539
513 520
512 518
523 525
514 514
497 493
498 491
521 516
516 518
486 497
484 499
506 514
512 512
499 490
491 483
505 507
501 510
477 491
477 489
486 495
484 491
474 472
477 471
496 493
485 493
461 477
471 484
504 508
520 514
517 502
525 511
556 544
545 554
534 533
531 531
542 543
531 539
532 520
534 517
549 537
519 541
518 526
525 529
548 544
535 539
530 519
532 519
554 545
530 548
520 524
512 521
529 534
520 531
523 511
521 505
530 526
505 531
504 514
513 518
538 536
529 536
542 530
558 539
591 574
572 581
565 563
567 566
588 580
576 574
571 548
560 540
572 562
546 564
544 544
544 542
555 551
542 549
547 531
550 531
568 553
533 550
522 529
523 527
542 538
527 529
518 503
512 501
530 525
506 528
502 506
499 503
517 519
518 524
534 515
547 524
570 553
546 562
547 547
553 549
570 560
549 548
539 527
538 523
555 546
528 545
519 522
516 522
536 536
528 533
532 516
530 511
540 536
515 538
511 519
514 517
520 519
499 510
501 494
504 494
521 518
490 515
478 493
482 494
507 511
507 512
516 500
523 509
550 544
535 554
539 540
542 539
550 548
535 542
535 522
534 520
546 539
511 535
503 517
511 518
536 534
526 529
520 509
539 509
535 533
509 519
501 509
506 502
504 511
492 490
491 484
508 481
495 499
463 479
459 478
476 476
478 483
461 462
465 464
499 476
512 512
499 502
500 507
519 514
528 529
520 511
519 506
530 499
516 520
487 497
483 496
498 493
494 499
477 480
480 478
503 481
503 506
471 483
461 481
476 479
479 489
465 466
457 454
467 452
461 475
437 457
436 459
450 455
448 465
440 449
448 451
478 460
484 490
467 481
481 497
517 510
536 533
531 519
531 519
554 526
554 552
528 532
519 526
517 514
516 523
505 503
509 501
532 503
524 527
500 513
505 517
528 519
531 529
512 506
511 504
534 509
533 534
508 514
499 511
513 511
519 522
508 502
507 496
521 495
515 522
497 507
511 518
543 527
555 546
552 539
563 544
592 553
591 580
561 557
553 558
566 552
569 562
558 541
553 535
570 541
571 570
553 554
558 558
573 556
569 566
558 547
559 543
578 544
565 560
529 538
526 537
545 535
546 542
526 515
515 507
534 533
536 539
526 529
536 537
558 558
573 567
575 557
586 561
608 585
597 589
570 571
570 569
588 580
584 570
562 547
560 545
583 569
582 575
558 554
551 552
568 567
571 562
557 538
557 534
568 553
557 559
533 538
533 537
548 545
537 534
520 514
520 511
541 534
520 534
503 512
506 518
536 538
537 543
549 529
548 529
566 558
544 563
540 543
539 540
545 544
522 535
519 511
517 505
532 524
497 519
485 498
486 498
508 512
498 507
493 483
486 480
504 504
480 507
477 487
474 483
484 494
476 493
481 476
487 477
505 500
480 510
479 495
489 499
520 520
518 521
525 512
538 524
571 558
555 567
552 549
547 548
563 562
552 557
552 536
547 529
556 549
528 553
526 534
534 537
552 548
534 543
536 527
540 528
561 553
532 551
516 526
510 523
524 530
507 520
499 491
484 480
490 499
461 496
458 476
463 476
483 490
481 497
497 490
511 499
537 528
507 529
499 512
500 510
515 520
498 508
485 480
476 476
491 499
466 499
463 479
454 470
465 481
458 480
464 465
468 466
479 486
447 486
443 467
445 465
458 473
437 461
429 440
429 439
448 464
428 467
428 451
440 462
477 491
487 501
507 497
519 504
537 537
517 544
517 527
524 529
536 535
520 529
518 512
542 511
538 535
510 519
499 511
516 514
524 527
515 508
513 500
526 498
521 523
496 504
494 504
507 500
501 506
486 488
489 483
511 484
508 507
479 488
482 497
516 509
539 534
542 526
551 530
578 542
586 575
566 560
564 560
572 555
567 563
553 542
553 535
571 532
559 551
526 532
524 533
544 533
547 541
526 516
519 511
538 511
533 534
505 510
492 503
499 499
501 507
488 486
487 479
499 474
488 496
462 476
463 478
487 481
495 495
493 488
512 500
552 517
565 553
546 539
543 545
560 546
567 558
558 539
556 533
569 535
564 561
543 543
546 547
563 545
562 557
554 543
561 543
586 548
581 570
547 549
542 549
562 548
565 557
549 533
540 525
557 528
555 552
531 533
528 530
537 527
538 538
529 519
535 517
561 522
560 551
547 547
567 563
607 579
622 597
609 580
611 583
636 590
633 613
605 590
594 584
602 581
604 591
592 568
592 562
606 562
594 586
569 566
570 566
588 563
581 567
560 546
559 542
579 564
572 563
539 537
529 536
546 548
548 543
536 521
530 512
541 533
535 537
513 517
517 519
538 533
543 537
546 531
562 539
595 571
594 576
564 560
564 563
585 575
586 568
566 542
554 535
569 557
562 558
538 537
534 532
541 539
536 534
523 511
525 508
540 527
510 526
494 506
492 502
510 513
493 503
482 477
478 474
496 496
471 496
463 473
452 466
464 476
453 472
457 452
461 451
482 479
466 495
480 489
499 502
530 522
520 522
523 509
527 510
550 536
524 539
514 516
509 517
526 528
516 522
517 500
512 495
525 521
502 526
501 507
502 505
514 513
494 508
495 489
497 486
515 508
483 505
471 485
472 485
492 497
482 491
478 468
470 465
487 490
465 492
462 473
460 469
473 482
471 486
488 478
506 488
535 521
513 532
517 522
527 527
550 542
537 535
528 514
526 513
545 537
519 537
513 514
507 512
523 526
514 522
519 504
519 502
528 523
499 526
497 507
501 506
515 514
492 503
489 485
490 483
509 507
481 506
466 480
461 478
480 489
472 486
474 467
469 464
482 490
461 494
467 481
481 487
503 505
499 511
515 505
530 514
555 545
528 546
521 531
527 532
547 544
534 537
527 514
523 515
543 543
526 549
530 534
532 532
543 545
536 543
541 526
567 527
559 549
525 536
523 532
542 532
547 543
531 519
523 513
544 515
544 540
520 521
514 519
523 517
527 530
520 513
527 512
553 515
553 546
535 539
546 548
574 555
582 569
564 551
564 549
587 550
584 573
552 548
537 542
546 540
551 550
539 529
539 522
552 520
542 543
517 522
517 524
534 522
534 534
517 515
516 509
537 508
531 528
495 503
486 503
503 501
506 511
492 488
485 479
500 481
501 508
485 494
493 501
515 505
521 525
519 514
528 515
552 518
538 534
504 515
501 515
518 512
517 519
495 491
486 486
505 487
504 511
480 491
475 489
485 488
489 500
478 480
480 476
494 474
480 495
453 476
452 475
470 473
464 475
446 454
445 452
474 461
471 484
444 462
439 464
464 471
482 491
483 481
492 484
512 492
512 522
492 507
496 510
511 506
502 511
486 491
485 487
506 489
499 508
466 486
464 489
486 490
492 502
483 482
477 476
493 482
491 506
468 487
466 485
475 479
472 488
461 469
463 465
480 487
467 484
437 465
438 465
461 481
469 480
461 466
469 474
501 508
508 521
494 508
493 509
506 523
511 522
500 501
498 496
509 512
494 513
468 494
471 494
492 507
490 501
475 484
479 486
504 512
503 516
476 495
471 494
489 508
495 506
481 483
478 477
491 501
474 508
467 491
472 492
488 502
472 498
478 487
491 493
524 527
510 537
508 525
515 535
543 554
538 553
540 533
532 528
547 553
521 554
516 532
512 527
521 535
507 533
514 517
518 516
539 540
510 543
503 526
506 526
527 539
515 532
509 509
504 508
524 533
500 535
495 514
490 509
501 520
491 517
496 499
502 500
523 527
502 539
510 529
524 537
548 553
536 549
532 532
540 538
558 560
529 558
514 530
503 525
518 534
505 527
506 505
502 499
512 523
487 526
484 507
486 505
497 510
476 502
474 482
474 480
490 502
456 495
438 469
438 468
456 479
446 473
445 452
443 454
469 488
460 501
470 493
481 498
497 513
490 515
495 498
499 499
512 519
475 515
464 493
467 491
484 501
469 491
462 470
463 473
484 499
464 503
461 483
458 480
472 493
463 489
466 470
465 468
473 487
442 488
439 468
442 466
456 474
434 463
433 447
444 455
474 489
460 497
464 484
472 493
499 513
496 513
501 497
519 495
508 519
481 505
477 498
491 493
486 499
468 478
470 476
495 479
496 505
468 484
460 486
478 487
483 499
472 478
467 469
477 466
472 489
447 470
444 470
455 463
449 470
436 451
438 448
461 449
458 473
434 460
443 473
477 483
493 503
488 488
486 486
509 492
509 519
486 500
478 496
484 490
483 500
473 481
477 478
498 479
490 502
464 487
468 490
490 493
494 502
475 480
473 478
496 481
495 506
469 486
460 482
473 482
479 495
470 476
471 471
486 471
480 497
463 484
472 493
502 500
506 513
503 506
518 514
551 525
555 554
527 535
521 537
539 537
543 547
530 525
526 517
540 520
539 547
519 531
522 533
538 531
536 542
528 525
532 524
555 527
547 547
513 526
510 526
528 524
533 534
522 514
515 510
533 513
530 536
507 516
507 515
523 518
534 537
536 527
549 532
575 539
568 564
542 549
543 550
562 549
558 553
533 526
527 520
545 521
540 542
512 520
504 516
518 517
523 527
513 507
512 500
523 521
513 523
488 502
488 502
504 510
497 500
479 480
480 477
501 500
494 501
465 478
463 481
490 500
505 505
506 494
512 497
535 529
538 540
519 524
521 525
532 532
523 525
510 504
507 499
524 518
510 515
478 494
479 495
500 508
503 504
483 477
473 472
491 496
475 500
465 480
459 474
468 483
456 480
459 460
460 457
474 477
442 478
436 459
439 460
463 476
457 475
464 464
478 476
513 512
503 525
504 510
503 512
520 527
512 525
512 503
510 497
518 516
494 524
491 504
494 504
512 514
494 507
495 490
499 490
520 516
495 517
484 494
481 494
501 506
492 502
492 481
486 476
500 501
476 505
475 487
477 485
488 492
474 489
481 475
493 482
524 514
505 524
507 515
520 524
549 543
541 542
539 520
534 519
551 544
525 545
521 524
517 519
527 529
518 527
525 511
531 513
549 538
519 542
518 526
525 528
547 541
532 533
527 514
528 516
550 542
527 545
521 523
517 522
534 536
526 532
531 514
532 513
547 539
529 550
539 540
557 551
586 570
575 570
582 560
586 560
608 588
584 590
572 568
570 568
589 580
578 574
579 553
575 550
591 579
569 583
570 566
575 565
585 572
567 566
569 549
572 548
587 570
552 565
541 545
543 543
561 554
545 542
539 520
554 519
555 548
534 539
538 535
557 537
563 556
554 540
563 541
591 545
587 569
551 549
546 549
561 545
561 552
540 525
530 517
549 518
547 542
523 522
521 522
530 518
528 527
515 507
517 503
538 502
528 522
496 502
490 501
507 499
511 509
494 486
490 481
513 485
510 509
487 489
484 490
503 495
516 514
518 504
530 508
555 513
552 542
526 525
525 526
542 525
539 530
518 506
512 499
531 500
529 523
500 501
494 501
510 501
515 513
506 494
504 488
516 486
505 506
479 487
481 489
495 486
491 494
478 475
479 472
500 475
495 497
465 477
461 477
483 481
497 498
496 485
504 490
532 501
537 533
521 520
522 522
535 521
533 529
518 508
518 503
534 502
523 521
492 501
489 500
511 500
515 511
504 494
502 491
520 493
516 517
490 495
483 492
494 489
494 498
484 478
484 474
499 474
489 496
463 477
464 478
484 478
485 486
474 470
482 475
516 490
527 523
510 511
514 518
535 523
543 537
535 518
532 513
544 535
535 535
510 516
511 516
528 527
527 523
516 507
521 508
546 534
542 537
513 518
510 519
529 532
534 529
521 508
516 503
533 527
529 532
508 515
509 514
523 524
523 522
513 504
521 506
549 535
551 546
536 538
551 549
585 573
597 575
585 557
583 557
606 585
589 590
579 569
575 567
589 579
577 577
583 559
590 560
609 584
581 589
577 571
581 574
600 585
583 577
577 556
573 552
591 575
565 575
554 551
546 548
560 557
547 551
548 529
544 524
560 548
538 555
543 543
557 550
581 567
570 567
573 550
574 549
595 574
565 572
555 552
547 546
558 552
543 542
537 516
528 510
541 532
515 533
512 513
510 509
519 516
502 509
500 488
499 484
511 502
476 498
464 475
462 471
478 481
463 471
456 448
452 446
472 472
454 480
461 466
470 474
494 495
493 500
505 489
513 492
529 517
498 520
491 499
491 497
505 504
483 491
475 469
471 466
488 489
462 489
451 465
445 461
457 469
443 461
440 439
431 431
437 450
405 447
398 426
396 420
399 421
379 411
378 394
380 394
398 417
372 418
371 404
383 411
414 434
418 440
426 428
430 433
447 461
424 463
420 444
416 438
422 443
403 433
402 414
403 413
417 435
387 434
385 419
393 422
421 441
410 434
406 416
424 415
418 439
395 426
388 419
398 415
398 424
388 407
393 406
416 406
411 431
389 416
394 425
425 435
444 457
445 450
458 458
492 471
503 506
486 493
484 495
499 496
502 507
492 489
492 483
509 481
501 505
477 488
481 493
503 495
506 506
491 487
491 484
514 487
515 513
486 492
478 492
493 491
497 503
487 483
484 476
497 474
489 497
467 481
473 486
498 491
506 508
504 499
517 506
551 516
553 544
524 525
518 526
533 524
534 532
516 505
504 494
514 491
507 512
482 493
474 486
484 481
481 490
468 470
470 467
488 465
475 482
440 460
434 458
451 456
452 462
430 436
421 428
437 429
437 453
419 438
423 444
448 454
465 476
469 469
482 473
503 479
495 503
468 484
468 484
485 482
479 484
457 460
453 455
479 463
479 487
450 465
442 463
457 461
462 471
450 451
444 444
455 444
445 464
420 445
420 443
431 439
425 444
410 423
410 421
433 426
432 450
412 437
422 448
456 462
477 484
475 472
476 474
495 500
492 504
470 486
466 483
475 490
472 484
459 464
461 462
481 484
472 486
447 468
450 471
472 485
473 480
456 458
452 454
470 478
467 482
442 462
436 459
448 469
450 466
441 448
441 444
455 466
449 471
432 458
447 468
481 492
494 497
493 488
503 495
527 523
514 529
503 512
500 512
517 524
506 521
507 499
502 494
517 517
492 521
491 504
495 504
509 514
494 509
493 490
495 488
514 511
483 509
473 488
471 487
491 500
481 496
476 472
472 469
487 493
465 497
465 480
461 476
474 485
465 484
476 472
491 481
520 513
500 524
504 513
515 521
541 538
531 534
527 513
523 510
539 534
514 535
506 513
501 510
516 521
507 518
506 496
507 494
522 518
492 520
488 501
492 502
508 511
490 502
485 481
486 481
506 507
480 505
468 482