747 746
504 605
294 422
124 272
19 168
17 78
7 4
7 6
22 29
20 23
7 7
8 7
18 21
16 16
8 4
7 6
22 27
6 22
7 7
9 8
18 20
3 16
7 4
8 6
23 28
0 22
6 7
8 7
18 21
4 16
7 4
8 6
22 36
2 47
8 35
9 39
18 63
4 69
11 59
12 47
22 63
0 65
6 65
8 70
19 77
4 72
7 68
8 78
39 111
14 112
7 106
8 117
19 139
24 147
24 128
9 132
21 157
2 166
17 155
17 149
18 153
4 152
8 143
29 145
44 160
9 165
7 152
25 168
60 202
50 201
46 186
47 190
72 218
58 220
53 192
29 173
23 171
12 163
31 154
45 152
66 183
84 222
128 244
176 284
220 323
220 336
239 341
265 363
307 409
302 421
293 400
294 401
314 421
316 424
320 407
314 400
325 424
310 427
326 416
334 418
337 421
316 413
321 399
335 405
353 427
315 410
297 380
294 374
310 384
296 373
279 341
266 333
282 356
273 360
282 345
277 338
277 345
266 342
276 330
285 330
284 336
243 321
236 297
242 297
261 311
250 302
253 295
298 315
332 372
356 396
381 416
410 438
433 473
447 476
470 490
496 492
482 514
455 492
464 499
497 508
495 520
472 497
476 500
517 515
533 554
515 531
501 527
514 526
520 545
516 532
513 521
513 506
492 519
467 492
470 491
476 479
450 469
420 442
419 438
447 441
437 454
389 413
371 401
383 396
386 407
369 382
356 367
370 368
378 399
389 403
419 430
456 450
476 489
489 496
518 517
563 536
552 556
514 530
511 529
534 533
534 542
499 504
479 489
495 487
498 512
483 490
471 479
467 471
462 480
458 467
461 463
466 451
437 457
403 428
403 424
420 421
401 413
363 380
354 370
377 373
377 393
349 362
331 354
341 353
350 369
349 358
348 349
356 348
353 372
355 370
389 396
432 421
450 454
468 468
503 498
559 532
571 568
544 550
547 558
577 569
588 589
572 565
556 551
566 552
564 575
551 558
558 559
560 553
551 561
541 546
553 551
577 557
555 565
518 536
520 536
545 542
541 547
506 511
493 501
516 530
518 533
498 510
489 498
486 506
486 503
482 488
492 488
505 506
497 510
496 506
532 535
584 579
596 590
591 587
611 604
657 651
666 667
639 641
624 638
640 653
641 652
631 631
619 615
622 628
608 625
591 604
602 609
613 617
595 607
575 585
580 585
608 613
577 601
550 566
542 561
563 576
554 575
546 545
531 532
541 551
518 552
524 534
520 528
519 529
500 526
516 521
551 543
595 588
581 603
597 603
625 628
667 667
662 671
652 649
648 648
674 680
654 684
647 656
630 643
631 650
616 646
625 631
632 629
638 645
601 639
601 619
611 624
630 638
596 618
578 590
575 585
597 610
569 604
549 566
529 554
539 562
526 556
528 534
513 518
516 533
494 533
512 527
543 548
573 577
568 589
599 601
637 633
686 686
668 693
659 676
668 684
697 711
690 711
683 684
670 676
684 700
663 701
668 682
666 676
661 681
639 673
642 657
650 658
658 673
606 653
593 625
596 623
619 641
591 620
567 585
556 574
572 597
550 592
544 562
524 547
522 550
505 541
509 525
513 520
521 540
503 548
531 554
574 587
618 626
613 633
623 631
647 652
683 694
666 696
653 670
646 666
657 681
643 675
641 652
627 638
623 654
595 647
599 630
603 627
597 624
562 606
557 585
584 587
579 606
534 571
512 551
521 544
520 554
502 530
488 510
489 500
482 520
465 502
474 505
480 497
465 502
452 485
463 487
494 494
481 506
444 477
442 476
463 480
467 494
445 465
425 450
441 450
448 480
448 475
462 487
494 510
522 551
548 567
586 595
626 612
620 642
600 627
612 638
640 649
637 658
601 626
589 615
611 619
611 643
580 613
559 600
565 596
568 609
560 591
557 581
559 568
536 578
511 553
512 551
524 544
498 535
469 506
466 499
491 504
482 517
439 479
420 468
432 465
435 475
419 451
400 430
399 422
389 435
367 413
365 407
359 390
338 387
324 368
337 372
376 388
382 414
376 412
407 441
456 473
481 506
471 490
462 485
480 492
481 515
462 492
446 478
438 467
431 471
426 456
439 459
458 460
446 478
434 466
450 479
480 490
476 495
450 471
447 467
475 478
480 503
456 477
444 472
454 470
458 481
453 465
448 455
452 452
442 469
430 454
441 459
453 455
424 445
398 420
399 417
418 438
400 423
354 383
336 370
352 382
366 386
369 379
380 386
416 430
444 460
460 470
486 488
497 504
492 503
485 491
496 495
513 515
484 496
443 464
438 458
455 470
449 460
419 425
403 414
420 439
423 444
402 419
385 401
372 399
365 390
356 371
358 365
358 371
320 360
312 340
321 344
340 357
314 341
298 316
295 313
318 338
302 339
295 312
277 303
288 315
289 320
314 322
338 336
378 385
395 422
443 448
493 489
530 522
520 528
530 526
550 541
586 578
559 576
540 548
535 544
550 556
536 550
526 520
508 505
514 522
492 521
497 504
494 496
486 494
458 482
458 464
462 462
469 474
425 457
410 430
412 427
429 439
409 426
391 394
378 385
390 404
371 401
364 374
346 355
338 354
318 344
332 336
357 350
385 384
384 410
421 430
471 470
519 512
512 516
514 509
529 521
564 560
554 566
545 541
534 536
544 547
533 544
536 527
527 514
526 529
499 526
507 511
518 515
520 518
492 504
488 487
498 492
520 517
487 503
468 477
467 476
494 496
490 495
482 469
468 459
477 479
460 479
468 464
461 454
454 454
434 444
437 430
449 433
464 452
440 453
459 459
500 491
557 539
571 557
584 558
604 579
641 623
636 636
645 623
637 620
641 631
628 626
634 613
654 609
634 620
596 598
598 594
624 599
623 609
592 578
579 567
601 569
605 594
583 569
564 555
564 547
561 556
549 538
550 529
554 516
532 527
503 502
508 502
523 498
502 491
467 459
455 445
474 442
462 452
420 412
394 397
399 389
392 390
372 361
355 340
364 338
377 372
394 382
437 419
482 446
501 482
514 489
542 508
586 528
585 552
552 530
552 534
574 542
578 557
555 529
534 514
544 512
542 534
523 512
509 499
502 485
486 485
472 465
469 455
471 439
437 437
398 404
396 400
415 399
406 400
378 371
371 366
397 376
408 404
393 386
382 380
387 378
387 388
381 372
379 363
381 354
365 367
348 350
355 353
369 350
349 342
322 318
328 319
369 341
395 379
388 375
401 397
447 427
482 467
494 469
494 467
507 475
505 499
494 485
500 487
500 476
474 472
454 448
457 445
479 449
465 457
432 436
443 444
476 458
491 478
474 455
462 448
479 455
481 478
471 462
465 455
465 450
463 461
453 444
465 449
487 473
476 475
460 463
476 475
510 500
505 493
480 466
473 461
493 485
491 484
460 451
439 436
440 439
435 431
425 413
429 407
444 430
449 443
454 447
485 470
511 492
503 489
494 479
502 485
528 514
518 507
477 471
457 457
463 464
457 454
438 427
419 408
421 423
403 422
404 405
404 401
398 397
364 381
355 356
353 347
359 355
310 330
283 295
276 284
286 289
267 274
249 241
232 226
243 245
230 247
241 236
240 234
240 239
224 234
231 222
234 219
233 223
192 211
196 195
217 209
257 244
267 259
290 274
331 313
394 378
416 416
440 421
454 441
486 474
493 490
513 489
517 487
520 505
491 504
499 492
515 501
527 512
502 503
502 491
516 501
548 535
527 533
512 509
513 511
531 530
522 528
522 509
513 501
520 521
497 519
505 502
504 497
496 495
472 485
474 470
487 476
504 497
467 485
457 464
465 467
489 486
481 484
485 471
501 489
549 543
568 577
604 590
623 608
650 643
652 654
671 651
687 659
692 674
647 662
641 637
648 636
659 643
624 618
603 588
601 582
619 605
595 598
582 565
561 554
567 559
549 550
547 527
530 507
516 509
477 493
472 469
472 461
461 450
420 425
407 401
410 397
422 414
387 395
365 365
358 358
370 368
366 366
372 352
400 363
419 411
441 435
490 473
536 501
546 528
543 529
563 545
605 563
607 589
568 562
561 559
580 562
586 578
570 555
555 541
567 540
570 567
558 552
558 550
560 542
546 548
531 529
537 528
556 524
532 531
492 500
484 491
502 493
497 498
468 467
451 454
470 456
471 478
452 457
442 450
449 448
454 464
454 455
468 460
496 469
506 509
519 522
570 565
634 607
659 645
661 652
688 675
738 704
753 745
732 724
724 726
736 726
739 743
729 726
724 711
730 708
723 727
692 690
696 689
716 689
715 698
697 675
697 669
714 668
695 681
659 651
651 644
660 641
648 642
615 610
603 599
617 598
606 613
574 581
557 568
559 559
548 559
526 531
515 514
514 500
488 503
455 470
443 458
452 451
449 460
454 462
490 491
549 533
581 585
582 588
602 612
637 633
650 658
646 647
645 643
663 651
655 669
632 646
631 643
637 637
622 640
606 619
609 618
631 624
616 636
584 610
583 607
597 608
593 612
570 583
557 571
570 589
552 578
527 549
519 537
517 539
505 530
489 506
486 499
496 512
475 501
448 475
445 469
455 475
443 462
417 434
409 426
422 443
414 437
393 411
389 409
415 435
443 458
474 478
512 508
558 560
577 589
584 595
610 617
636 640
630 639
618 625
623 626
645 652
625 650
608 622
604 621
619 636
607 636
609 617
601 608
619 636
592 636
589 614
588 609
588 612
561 601
557 578
558 573
574 591
538 578
526 552
524 547
535 556
516 544
504 512
490 500
493 510
462 500
456 473
439 456
434 455
412 441
406 416
403 406
405 414
368 401
359 376
356 371
370 379
361 376
377 378
413 409
476 474
501 516
531 528
556 554
592 590
594 603
606 595
613 598
625 623
603 626
601 606
605 607
616 618
592 608
589 592
590 591
610 617
584 614
573 591
572 588
582 599
566 589
560 562
548 549
552 564
522 553
516 528
511 517
505 514
477 498
470 475
467 468
471 478
432 463
418 438
416 432
428 443
412 434
401 410
396 407
411 429
392 427
394 409
389 403
393 411
384 408
399 405
429 426
472 473
483 507
518 523
555 555
595 592
591 597
597 591
609 600
629 629
608 627
601 603
594 599
599 609
586 603
591 589
599 591
605 613
579 608
579 591
585 590
588 594
559 577
551 555
567 551
559 567
526 539
510 523
515 517
509 525
493 503
487 491
496 484
483 501
458 477
458 475
466 465
450 466
429 443
426 436
445 434
435 446
400 416
391 412
404 411
404 422
399 408
404 412
450 441
491 503
514 524
550 556
587 581
605 615
609 614
624 623
655 634
648 656
618 633
616 631
630 632
627 640
602 613
594 606
613 609
610 631
585 607
573 597
576 591
569 594
549 569
546 558
554 549
537 561
509 536
507 535
527 539
526 550
515 540
518 540
542 546
539 567
509 538
497 531
508 528
501 531
482 504
470 487
475 480
462 493
441 472
451 477
480 488
494 516
509 526
545 556
604 596
628 643
623 643
640 662
673 680
683 701
671 682
665 675
681 679
672 696
650 672
648 667
654 663
647 672
636 655
642 655
664 660
649 674
618 648
616 645
632 644
625 646
596 615
585 604
599 602
588 613
562 581
549 569
550 562
543 565
527 542
525 533
533 529
515 539
491 514
493 513
513 516
514 528
518 526
549 549
606 605
635 635
638 637
657 657
688 688
697 699
692 686
690 680
700 702
685 699
659 672
657 666
663 670
649 660
634 639
637 637
659 659
646 652
614 622
607 616
616 624
606 614
583 583
569 570
577 585
563 578
540 552
532 542
533 545
523 535
509 513
511 508
526 524
496 516
488 497
503 506
539 539
551 557
576 563
605 591
653 644
653 668
666 663
674 671
691 692
682 693
685 677
688 673
697 689
662 684
656 659
659 659
672 669
648 657
639 636
639 634
658 658
630 653
616 623
607 619
619 629
602 621
601 598
595 587
605 606
578 601
578 581
581 580
589 586
566 578
564 560
572 563
602 596
591 607
610 610
645 641
698 688
719 713
736 715
739 726
751 749
737 751
738 738
742 738
751 749
729 740
729 722
734 724
750 748
723 743
715 721
721 723
740 739
725 727
718 703
717 699
734 723
707 715
699 687
688 677
690 683
668 670
663 646
659 636
659 649
619 637
608 610
608 605
613 609
590 593
579 570
578 564
593 585
574 582
580 569
602 589
645 628
664 651
695 660
719 679
748 721
723 729
723 717
733 724
746 739
724 731
723 713
730 712
747 733
712 719
702 695
704 692
715 704
697 692
689 667
682 662
688 681
656 671
651 648
646 637
642 639
614 622
610 600
630 597
622 613
585 589
576 576
586 572
582 578
560 550
550 537
560 531
542 549
519 526
522 523
524 509
500 505
480 482
484 477
511 478
495 483
453 450
443 442
461 441
461 449
439 419
420 405
432 404
431 426
410 402
399 392
397 384
389 391
383 376
392 376
411 373
402 392
400 393
441 429
509 473
550 518
556 523
578 545
626 575
650 621
641 610
634 610
643 614
649 632
644 618
646 611
648 602
630 616
607 595
615 599
636 602
615 597
583 569
579 560
600 564
591 578
547 539
523 526
530 521
530 528
515 503
499 482
497 474
485 486
467 466
467 461
463 446
440 443
423 423
428 422
449 427
430 430
391 403
389 404
414 411
423 425
407 402
394 393
410 399
415 422
405 408
381 391
400 391
405 404
402 394
407 395
428 403
437 436
447 445
486 480
538 512
561 545
572 552
595 570
635 595
639 622
617 602
615 605
630 608
627 617
610 595
600 584
606 584
595 599
572 578
576 578
586 576
575 579
560 558
561 555
580 575
563 564
527 534
523 530
536 542
531 533
508 504
497 494
509 513
500 510
478 488
473 480
476 486
471 480
460 461
460 453
469 467
453 460
431 439
430 436
441 445
428 430
405 406
399 400
416 422
408 418
380 390
366 379
369 383
358 370
342 345
333 330
332 338
311 335
320 328
346 349
388 386
404 409
438 427
475 458
521 507
516 523
520 515
530 527
559 553
559 560
570 549
576 551
596 580
578 586
583 572
590 574
599 584
580 580
582 565
587 567
605 590
571 582
556 558
554 554
565 564
546 551
535 522
525 513
534 529
509 523
504 499
497 491
500 498
483 491
483 474
483 470
490 483
454 475
446 451
440 444
446 446
416 425
397 395
384 381
385 389
352 374
333 340
315 325
310 324
288 310
280 287
265 269
261 276
236 273
241 263
262 277
300 307
323 336
368 364
419 409
482 473
496 504
515 508
534 527
562 556
561 563
569 552
572 555
586 583
564 583
566 569
569 567
576 576
563 574
567 560
574 561
587 581
553 569
543 545
540 539
546 544
522 527
506 497
497 488
500 502
470 490
460 464
442 446
436 444
415 428
406 406
403 396
401 403
369 391
363 370
361 367
367 371
344 354
332 332
328 328
335 342
310 333
295 308
285 299
288 301
271 288
267 269
279 261
271 280
270 280
299 303
351 336
385 377
404 394
435 422
484 453
503 494
489 485
488 490
506 496
509 511
496 493
492 483
502 479
493 497
472 475
473 476
485 473
474 477
455 457
449 449
466 448
459 465
426 439
418 434
427 430
421 433
403 408
389 394
398 389
389 401
365 376
359 370
359 359
347 361
333 341
330 336
345 333
330 343
303 322
301 322
317 323
314 328
293 303
286 297
305 298
308 320
308 314
328 333
370 363
408 408
436 429
473 459
517 486
525 524
516 518
527 530
550 537
544 543
524 522
521 515
540 517
535 533
513 510
506 507
517 507
515 516
503 497
499 488
509 488
501 505
477 484
477 481
482 474
467 472
446 447
439 437
454 436
442 444
410 416
403 411
412 408
407 413
389 389
379 377
388 379
381 392
362 373
359 369
367 367
377 384
391 390
427 417
484 454
511 502
518 511
544 536
581 558
590 578
579 563
579 565
600 575
593 592
569 568
558 560
564 557
560 563
542 539
544 534
558 552
547 551
528 531
530 532
543 542
530 529
508 506
502 499
515 517
504 511
471 480
459 472
466 477
459 466
441 441
432 428
436 442
424 435
401 412
400 407
406 411
404 409
405 404
431 423
483 476
511 507
518 516
548 545
591 584
609 600
610 592
616 599
640 629
626 634
622 615
620 612
622 618
601 610
598 590
599 587
613 605
579 598
570 575
569 574
584 584
565 573
553 546
545 539
559 556
531 550
524 521
511 509
511 513
491 502
488 481
485 473
489 486
456 479
452 458
452 454
460 459
436 446
434 431
450 442
493 486
505 512
531 519
560 549
604 592
615 613
634 613
645 621
662 652
639 656
638 639
640 637
641 639
612 623
602 597
599 590
611 606
576 591
561 563
550 552
554 557
533 544
524 518
511 507
515 521
484 511
477 485
467 474
463 472
441 459
437 438
440 437
452 453
422 447
421 431
427 435
444 450
432 446
430 430
431 433
455 464
452 478
483 489
514 517
562 565
596 603
645 629
693 667
738 721
730 742
734 734
740 738
754 751
733 741
728 722
731 723
748 749
723 745
717 723
718 726
734 742
723 738
727 721
731 718
739 741
713 735
712 715
711 710
709 711
678 693
666 668
661 660
661 670
617 647
593 614
582 601
580 599
554 576
535 540
535 524
514 530
479 501
467 482
462 462
433 451
403 419
391 404
404 398
398 414
385 406
408 431
457 462
493 504
504 507
517 519
548 534
555 566
539 552
537 550
540 547
532 553
514 532
512 525
528 522
509 534
482 514
483 517
505 524
504 531
482 506
475 499
491 497
484 512
453 480
434 464
428 451
415 448
391 420
378 403
377 388
356 395
327 368
320 361
329 352
311 348
290 325
287 318
307 319
304 335
282 313
273 312
285 309
280 316
266 292
254 278
255 273
246 284
231 266
241 274
268 287
292 322
327 346
375 385
437 426
460 470
460 475
477 492
501 504
503 516
481 491
465 481
473 478
458 486
428 456
406 434
394 419
384 419
370 399
370 393
379 388
359 394
332 372
327 367
332 361
318 354
287 324
267 306
275 303
267 312
242 287
227 276
232 272
229 276
221 260
221 252
224 249
217 263
206 250
219 260
228 260
218 258
199 241
197 239
216 247
222 265
209 249
214 256
249 278
292 322
340 354
395 399
462 469
503 516
523 533
556 564
590 594
592 601
585 591
591 595
615 622
603 619
571 592
563 587
575 597
573 592
558 568
552 560
563 580
559 583
541 562
541 556
541 558
524 544
505 520
503 513
514 526
491 513
460 485
454 478
465 484
454 469
432 443
425 434
437 452
422 450
419 430
413 424
416 431
399 425
400 409
400 402
405 415
374 409
376 397
401 416
448 455
469 483
506 503
544 535
598 592
603 617
616 613
622 624
640 644
629 645
630 628
623 619
627 634
591 626
585 602
585 598
589 601
564 589
559 568
560 566
578 587
548 577
534 549
526 542
530 547
509 535
497 505
482 491
482 503
449 491
440 463
424 446
416 442
392 428
386 405
385 398
389 407
354 395
344 372
341 367
349 373
324 355
309 328
302 321
323 346
324 361
352 370
390 404
447 458
484 499
526 521
560 547
592 588
580 601
589 593
599 601
611 612
586 599
575 578
572 574
584 594
553 583
541 558
538 555
553 568
544 564
543 543
536 535
540 550
511 541
505 518
502 510
497 507
468 491
460 468
455 461
458 470
421 453
408 429
405 423
413 429
399 418
388 394
382 389
390 404
369 400
368 380
361 372
359 374
343 366
350 357
375 373
413 416
429 450
478 482
530 526
583 575
596 593
614 600
654 619
664 655
649 647
647 640
652 636
644 645
625 622
621 614
634 607
619 621
589 597
589 596
606 596
598 600
572 574
566 565
582 562
576 578
544 544
525 531
526 522
511 521
489 492
480 477
483 467
464 476
433 447
430 442
435 434
418 431
397 408
396 401
414 401
407 412
375 384
367 381
380 380
388 395
396 393
423 413
480 454
523 517
544 537
581 570
616 594
632 625
635 623
649 632
678 641
669 658
637 633
632 628
642 625
633 628
610 601
602 592
624 599
618 618
594 594
584 586
587 580
579 583
561 559
557 548
565 538
541 544
508 514
499 505
506 497
492 493
462 463
448 449
455 443
445 453
414 422
400 411
406 405
401 408
388 387
383 376
388 371
376 382
359 364
373 374
411 393
439 429
471 455
519 496
581 541
608 589
603 590
618 609
645 624
653 642
642 624
633 615
643 616
631 628
606 603
604 597
607 591
597 596
582 576
583 574
601 578
584 587
553 561
547 555
558 552
550 551
523 520
508 505
512 514
499 506
476 480
464 467
457 466
443 452
425 429
421 420
427 429
407 420
383 397
381 394
392 401
379 387
358 363
354 357
372 378
381 386
387 386
419 417
477 472
521 512
554 534
587 562
629 613
636 631
627 623
638 631
651 642
634 630
613 606
604 594
621 613
597 606
581 580
577 579
591 592
579 589
577 568
570 559
579 579
550 574
545 551
541 543
537 543
511 530
504 505
502 498
513 511
475 497
462 471
458 465
465 471
443 457
432 432
428 429
440 449
416 445
414 423
403 413
404 418
392 412
406 406
435 424
483 473
501 511
543 532
587 572
637 617
643 633
654 632
666 645
692 678
668 678
655 650
644 643
650 650
631 639
630 618
627 611
632 627
603 621
606 604
612 607
619 614
593 601
584 580
582 575
594 593
558 579
539 548
532 540
537 544
519 530
510 503
498 490
502 505
475 497
472 476
470 468
461 464
438 453
435 435
442 437
450 452
416 442
416 428
437 443
485 484
513 513
550 531
593 571
649 633
660 663
687 668
701 681
718 704
708 705
712 692
715 691
720 708
683 700
680 680
688 683
705 698
685 687
683 670
690 673
707 698
682 690
671 662
662 656
664 660
640 645
629 618
614 600
601 604
556 582
539 549
528 533
516 522
480 495
464 467
473 456
456 463
423 432
406 416
411 411
409 418
400 402
405 401
438 417
467 468
492 490
540 533
598 572
631 617
647 629
675 652
719 673
727 705
698 684
695 683
707 683
703 693
676 662
664 649
680 650
677 675
656 657
656 655
665 654
658 662
641 641
640 634
656 629
636 637
595 604
586 595
594 588
581 586
549 551
533 536
543 531
533 545
507 518
493 508
498 504
495 510
482 491
483 484
494 478
482 492
460 470
466 474
496 485
512 509
526 519
565 551
630 597
662 650
662 651
674 668
704 684
711 704
703 688
701 679
710 678
697 693
668 667
666 662
674 656
663 661
647 642
650 640
672 646
663 661
628 631
620 627
631 624
625 627
602 598
589 583
600 581
590 594
568 569
563 562
566 555
557 559
541 538
541 531
554 530
536 539
506 514
503 511
516 509
510 510
487 483
485 478
514 491
531 526
544 531
574 559
623 596
658 638
679 651
707 672
741 693
739 722
717 707
721 712
737 712
724 711
700 685
696 678
713 697
708 696
685 672
684 673
702 689
701 688
690 668
686 659
695 677
679 674
651 647
645 639
646 637
621 617
592 584
578 567
581 573
553 551
508 510
488 491
485 489
471 473
441 437
426 422
433 438
418 432
393 404
381 392
379 391
377 387
388 388
426 416
486 473
505 506
526 515
550 536
586 567
587 575
589 562
592 565
611 592
586 592
577 567
568 561
577 572
566 572
574 559
581 560
595 582
570 583
571 566
574 567
583 574
553 557
539 531
531 522
537 536
500 520
476 483
459 468
458 466
428 444
414 412
394 391
391 398
362 388
359 367
359 363
363 365
344 358
350 349
369 361
414 407
429 438
471 466
522 510
579 561
601 586
621 586
631 598
651 627
626 626
624 606
615 596
609 596
581 582
573 557
572 552
582 568
550 562
547 546
558 552
579 570
567 563
563 546
567 548
587 574
566 572
563 549
555 544
563 553
549 545
550 527
551 521
554 536
524 530
519 509
522 507
527 509
500 490
490 468
497 469
528 502
538 523
567 533
608 568
664 618
689 647
720 657
738 674
751 715
727 721
727 710
734 710
738 714
712 700
706 676
707 672
716 687
677 671
663 646
661 641
667 649
645 633
630 603
618 596
621 611
587 599
576 572
564 557
556 554
531 538
524 514
538 506
519 511
480 484
470 471
476 464
464 462
434 428
416 413
423 405
416 422
405 409
427 427
473 459
521 511
557 534
603 568
660 598
678 643
670 641
685 654
710 664
709 675
682 651
672 642
686 641
676 659
637 624
616 611
624 609
622 619
608 597
607 586
614 579
600 595
572 569
566 563
572 554
552 549
523 521
514 508
525 503
510 512
470 476
452 467
458 457
446 456
426 429
411 411
417 406
409 419
393 400
396 400
415 406
438 438
472 459
524 499
592 541
625 592
629 602
657 627
693 649
707 671
695 653
691 650
709 656
701 674
672 647
662 636
664 630
656 636
641 615
642 611
658 610
640 624
611 601
608 599
622 596
610 594
579 564
568 552
580 550
567 560
535 526
516 514
519 506
509 508
491 484
483 470
484 463
467 473
442 448
439 444
456 442
464 459
486 472
534 505
606 553
647 608
659 618
691 649
741 679
749 707
737 694
732 694
750 705
744 725
719 697
716 687
719 680
703 681
689 658
691 653
710 671
689 660
656 633
655 630
668 641
657 628
627 594
611 581
620 597
604 589
573 559
557 543
550 543
537 531
519 505
513 492
518 502
494 492
474 471
470 466
477 470
459 450
430 422
430 419
466 455
495 481
517 492
558 528
621 582
666 619
695 634
725 656
750 696
735 711
727 700
732 707
749 716
722 703
714 679
714 673
732 692
699 681
680 649
673 644
688 655
670 646
665 618
651 605
656 621
623 613
612 586
603 573
596 569
564 553
553 526
546 517
553 527
511 510
494 481
487 473
494 479
472 465
452 432
437 421
444 437
416 431
409 407
397 394
397 401
391 399
418 402
463 430
526 489
549 531
598 555
650 596
704 640
710 651
721 650
731 663
751 694
727 690
717 664
708 659
717 667
700 658
696 634
689 624
693 643
663 637
659 617
661 614
664 615
633 601
624 578
621 573
630 587
590 571
564 540
554 530
560 534
537 519
524 488
507 475
515 491
486 485
479 463
469 448
459 445
434 433
429 413
427 408
431 417
393 404
381 385
385 387
411 407
427 421
462 438
515 484
583 551
608 590
645 603
669 625
699 657
700 666
712 661
720 661
723 675
682 668
675 646
674 643
678 648
648 627
637 607
642 606
655 629
628 619
613 591
605 586
610 592
590 579
583 555
588 541
564 551
530 528
520 516
521 503
503 495
471 467
463 457
478 454
465 464
430 431
415 423
422 418
418 424
401 401
391 387
394 380
380 395
358 374
366 379
398 390
429 427
470 453
528 496
603 542
640 596
641 602
664 625
701 645
713 668
699 647
688 637
700 636
690 653
658 625
648 614
646 603
637 608
622 589
621 581
640 580
622 592
594 571
589 566
599 562
587 559
553 524
535 509
545 504
532 516
499 483
478 467
474 456
465 458
443 432
434 418
435 406
413 416
386 392
382 390
391 385
376 380
350 356
348 351
371 356
381 381
385 380
424 417
499 467
557 524
594 545
629 570
674 602
691 644
684 639
694 647
704 645
687 648
666 624
661 616
676 616
658 623
620 595
620 596
635 596
635 607
621 585
614 577
627 579
614 593
587 568
577 559
576 550
559 548
537 521
531 511
539 506
517 512
484 484
475 477
484 473
476 472
449 442
437 430
447 431
436 442
413 418
406 412
417 413
436 436
468 453
522 492
587 553
621 591
640 608
676 639
718 675
726 683
714 668
717 669
728 692
710 688
680 656
652 636
663 645
658 640
646 619
644 609
652 626
636 623
612 601
613 599
620 602
599 584
571 556
564 547
577 564
558 551
517 515
503 505
508 511
507 507
491 480
477 466
477 479
450 473
439 450
436 442
433 441
405 428
405 411
435 429
498 486
521 524
561 546
613 590
679 645
707 676
729 678
735 694
750 732
731 743
731 724
730 718
731 721
709 710
708 687
712 683
724 698
687 691
676 666
680 668
701 682
679 668
663 641
655 632
668 654
639 648
624 614
606 600
603 601
580 588
574 563
566 550
562 558
522 547
512 523
513 519
518 521
486 500
470 473
466 469
485 491
474 494
491 493
526 522
588 575
629 614
676 632
710 661
750 711
731 731
732 728
740 734
749 743
725 730
722 710
730 709
749 729
713 713
700 684
702 683
721 698
706 688
697 661
687 653
695 673
667 668
666 645
653 633
644 630
613 613
604 587
596 576
587 578
535 558
514 526
506 517
506 516
471 488
445 454
426 439
427 451
396 438
378 407
362 395
374 406
388 420
431 437
480 472
532 531
545 563
582 580
621 608
648 633
633 630
631 617
638 621
647 642
609 624
584 592
572 582
576 588
560 575
553 550
561 542
546 559
519 541
518 534
528 527
514 527
489 503
485 494
502 492
489 502
445 465
423 451
426 443
420 445
399 415
384 401
391 396
384 414
367 396
368 394
367 385
362 393
355 380
368 386
404 399
422 436
437 451
490 497
559 541
604 587
619 594
639 611
676 631
685 665
662 645
648 636
644 626
628 626
602 597
592 581
596 570
576 581
547 557
549 559
569 560
561 563
540 542
536 537
558 541
554 561
529 536
515 530
523 525
519 532
505 509
498 497
505 493
494 509
471 488
471 485
477 477
460 474
434 448
428 440
447 440
439 450
415 427
439 443
508 481
560 523
591 532
619 551
672 584
685 623
675 619
680 628
692 636
692 654
683 645
692 652
716 661
705 683
679 666
688 675
716 688
722 702
707 684
708 685
733 696
728 717
701 689
688 681
694 678
681 679
657 650
648 635
648 624
619 626
581 593
572 584
580 576
562 570
536 541
528 532
547 537
542 553
521 531
533 543
582 572
631 620
680 647
732 684
750 746
754 751
745 745
747 748
754 749
755 752
744 734
744 732
751 746
754 750
739 738
736 737
752 749
751 750
741 729
741 725
750 746
753 750
735 735
738 736
751 746
744 741
732 723
739 724
751 746
751 748
722 720
720 714
737 720
723 700
692 663
676 645
682 657
652 647
632 613
618 599
620 602
600 591
606 575
627 582
671 624
679 653
717 668
739 705
754 748
747 749
743 729
743 728
751 747
747 751
739 736
736 734
749 746
735 742
737 722
738 716
750 737
729 735
725 713
732 711
746 716
726 704
723 680
727 676
746 694
707 679
683 644
669 631
671 632
644 613
628 577
613 564
621 580
596 578
599 563
607 565
620 578
609 577
613 564
619 565
627 580
593 574
594 562
621 581
679 627
710 653
738 669
745 701
751 748
743 751
736 732
733 722
740 726
723 710
725 685
732 678
744 696
715 690
716 672
727 679
748 696
731 688
727 669
731 671
750 698
727 694
712 663
699 651
700 653
675 637
667 609
655 594
650 605
610 590
599 565
598 558
597 557
569 540
561 519
563 519
578 539
548 530
538 511
548 517
584 546
603 562
635 568
669 596
714 647
720 670
732 672
740 685
748 704
729 701
730 689
739 694
751 713
720 700
712 677
719 677
737 689
721 675
717 655
737 656
735 682
712 666
706 656
709 649
698 654
676 628
671 619
682 610
661 622
619 590
607 583
617 578
610 579
580 548
566 534
578 529
569 547
539 519
522 507
534 508
553 533
574 539
610 560
664 588
688 636
688 639
709 658
741 672
742 685
721 666
718 661
738 665
730 682
688 650
669 639
675 633
671 640
654 616
647 604
657 602
646 620
619 598
615 593
620 586
605 586
587 565
582 557
598 555
580 564
539 532
524 524
533 520
529 524
506 494
491 480
498 476
487 492
462 468
447 456
445 445
431 445
415 424
423 425
458 437
477 477
494 490
535 525
596 560
630 594
638 594
654 606
690 625
695 657
674 637
666 635
672 632
664 638
647 615
641 604
647 599
627 611
596 586
594 584
607 580
593 578
569 552
563 544
579 547
567 558
528 526
510 515
514 508
505 510
486 484
472 468
471 462
452 469
424 445
418 438
418 427
401 424
381 400
376 392
388 393
369 396
333 369
320 361
323 353
315 350
291 321
278 310
283 325
281 327
283 323
307 339
347 375
382 399
412 414
449 440
490 480
496 494
483 483
491 490
516 507
516 503
498 480
490 475
501 495
490 492
461 465
442 452
442 455
435 448
422 428
418 419
421 431
401 424
375 402
374 399
379 400
361 382
338 357
336 354
346 371
320 360
298 331
283 321
287 325
270 315
267 293
255 279
254 291
224 284
221 266
220 260
218 259
194 245
189 226
188 221
197 237
168 226
154 205
147 199
155 207
143 198
140 176
141 175
168 207
177 230
211 241
237 260
267 287
274 301
296 303
315 315
335 339
311 340
309 327
315 332
331 345
315 334
306 312
302 309
316 329
299 332
297 313
290 308
297 315
285 313
290 299
290 293
289 304
256 296
252 280
255 280
264 284
240 269
231 250
228 247
240 264
216 257
203 235
196 230
203 236
194 232
194 213
186 204
189 217
168 216
168 203
172 200
173 201
156 192
153 178
157 179
170 195
146 188
136 172
139 171
160 187
170 195
187 193
209 212
248 254
259 280
279 282
290 290
302 304
296 305
303 298
313 302
321 318
292 312
286 298
291 300
305 309
291 298
284 281
283 282
298 304
285 306
284 291
280 289
288 297
279 294
284 282
285 278
287 291
262 288
261 275
267 276
275 279
255 266
248 251
267 252
264 270
244 253
234 246
239 243
232 247
226 233
228 228
238 225
225 240
208 224
211 230
227 228
218 230
201 211
200 210
223 214
225 235
215 222
226 239
265 259
290 289
302 287
311 294
335 304
337 331
327 321
332 326
341 323
331 328
318 312
319 310
339 310
326 321
297 300
295 302
312 306
316 316
300 294
296 291
315 296
321 324
307 308
303 306
308 304
305 312
298 298
302 295
316 293
304 306
282 289
284 293
301 294
297 298
279 278
277 274
295 279
296 298
277 276
270 275
279 275
281 284
273 268
271 261
279 259
266 274
247 258
247 259
259 255
256 262
255 256
275 270
317 293
332 323
323 318
330 329
351 339
360 354
351 337
346 332
357 335
352 353
336 337
335 334
341 331
335 337
326 324
334 326
354 331
347 347
326 333
330 338
351 344
354 351
340 333
336 328
352 334
352 352
336 333
330 329
335 326
332 333
324 320
325 315
328 310
317 324
298 310
301 312
318 313
314 315
298 299
299 296
319 321
318 320
297 300
293 298
304 311
306 308
299 293
295 285
303 303
296 303
285 293
302 303
331 326
344 336
353 339
378 356
416 394
424 404
410 393
413 397
429 412
429 409
414 387
404 381
414 400
406 400
392 385
393 384
401 393
397 390
393 378
402 381
420 402
397 399
390 382
394 385
410 399
395 390
387 369
382 364
396 386
375 385
374 365
367 360
373 370
361 365
365 351
367 346
376 361
348 356
346 339
348 339
356 346
333 332
323 312
319 307
332 325
305 318
292 293
282 285
288 292
279 288
290 278
301 283
326 315
322 331
340 333
351 340
364 352
350 351
356 343
363 347
379 369
354 365
346 348
347 350
367 365
363 366
369 353
373 357
395 385
385 394
397 385
403 389
414 401
404 401
410 392
419 396
433 414
405 411
401 396
407 399
425 412
411 403
407 386
407 385
423 407
407 408
408 390
409 392
416 401
404 397
408 384
409 380
415 396
388 393
388 379
400 384
421 399
420 403
435 405
462 426
498 466
492 475
494 464
499 470
515 487
507 487
510 473
508 470
513 489
488 486
489 473
493 472
500 478
482 472
484 459
495 465
513 487
495 489
500 490
497 492
507 502
491 493
482 469
474 464
482 483
459 478
459 458
452 449
452 454
434 446
434 431
456 432
445 447
416 430
413 427
435 432
444 447
433 429
434 428
461 436
473 469
474 463
489 476
515 489
529 516
532 515
550 527
582 537
579 565
555 548
556 553
577 557
574 563
548 537
540 529
556 527
555 548
532 525
530 527
546 530
550 545
543 530
544 525
558 524
546 542
520 521
521 522
534 518
521 520
497 495
494 488
513 487
503 500
468 466
454 457
457 447
447 450
426 423
414 410
420 405
404 416
377 390
370 382
370 371
361 375
354 362
370 370
405 386
410 412
395 402
402 411
421 418
420 427
399 403
386 393
395 391
384 404
358 379
344 368
345 361
340 366
331 350
337 349
353 349
344 365
325 348
329 351
345 352
337 354
315 332
309 326
323 328
318 341
290 316
278 308
286 305
285 312
278 296
276 289
286 290
282 308
271 297
281 303
298 306
294 314
285 304
292 306
317 318
320 338
307 329
321 345
355 365
378 393
383 391
390 397
414 412
417 438
409 428
414 430
422 429
414 435
397 416
402 417
423 441
413 438
391 422
397 427
420 447
425 447
412 429
411 428
431 453
431 455
415 436
409 430
413 438
408 433
398 416
398 411
407 426
390 419
368 399
372 400
392 414
381 402
360 380
358 374
374 395
370 390
346 364
338 359
350 371
359 376
367 375
385 387
414 426
412 444
425 445
443 460
461 477
446 476
449 463
455 464
475 487
447 480
436 457
432 455
445 468
433 466
433 446
429 442
443 466
421 467
425 452
426 450
430 457
413 452
415 436
420 436
435 454
405 447
400 427
402 427
417 441
402 432
394 411
390 408
405 431
386 431
384 411
378 406
385 415
374 412
385 403
401 409
429 443
425 462
450 469
480 495
512 524
505 527
508 520
516 526
540 558
521 559
510 534
503 529
516 543
506 540
509 523
506 517
516 537
492 536
495 520
500 520
506 527
482 516
477 498
478 496
491 516
458 505
444 480
442 476
453 486
441 479
433 456
430 453
443 475
430 480
434 463
433 458
435 465
418 458
419 443
427 444
443 466
426 472
442 472
473 497
512 532
518 542
529 541
544 555
572 591
555 594
556 575
555 576
562 590
545 582
546 566
548 564
556 583
524 576
524 560
533 564
547 577
527 566
524 550
529 553
548 577
526 571
517 547
512 544
519 553
505 545
502 524
513 516
499 532
472 513
473 508
486 503
475 505
454 482
457 481
479 482
474 497
448 471
449 476
479 491
500 522
510 525
527 537
560 556
570 594
560 588
567 594
579 596
576 609
564 594
568 592
591 594
582 610
551 585
547 582
562 584
563 595
545 571
536 562
547 559
544 579
523 556
512 548
517 542
513 549
499 529
493 519
504 511
487 522
463 500
457 496
467 489
456 488
429 460
416 449
430 447
424 463
399 437
393 435
414 444
434 472
453 480
484 503
524 527
540 570
540 570
561 589
589 602
589 617
576 604
581 606
605 614
600 633
568 607
561 604