764 762
681 710
388 448
149 207
18 76
22 34
21 25
22 35
39 63
63 109
59 121
33 105
29 102
28 99
21 68
9 24
8 7
27 31
9 28
8 9
10 9
22 23
6 22
13 15
14 12
29 31
3 34
8 16
9 15
22 26
6 20
8 5
8 7
26 31
3 28
8 9
9 8
21 22
6 20
8 6
9 8
27 31
4 27
8 8
9 8
21 22
6 19
8 5
34 26
110 111
156 192
228 260
304 345
385 434
413 480
432 487
434 496
455 526
428 527
420 496
399 476
392 469
357 448
352 418
344 403
352 415
320 411
324 393
336 402
362 422
343 416
333 392
323 381
334 396
296 379
270 330
241 300
234 284
203 257
188 215
168 184
163 178
124 158
116 122
111 108
112 103
85 83
78 58
77 50
94 65
62 51
43 14
36 10
73 39
124 98
210 170
303 273
420 411
490 522
565 589
618 650
658 701
652 719
655 711
658 714
674 734
626 717
602 673
584 653
587 650
557 625
542 587
533 575
556 601
539 606
543 583
537 576
540 580
514 565
505 533
491 511
484 506
425 473
394 421
375 393
370 379
326 342
297 295
304 271
285 277
251 244
232 218
228 198
217 197
197 170
192 162
201 147
181 154
146 119
137 111
148 100
146 106
165 120
238 195
361 300
467 440
536 525
603 610
673 677
716 743
723 740
727 735
738 730
723 747
683 715
668 699
662 673
633 659
595 620
585 608
611 609
613 637
584 614
581 616
600 620
605 637
583 609
562 586
559 564
535 567
491 521
468 494
450 459
417 437
380 393
357 363
363 340
342 340
300 300
288 287
302 278
299 281
272 246
255 227
267 213
257 224
232 192
238 196
291 236
366 326
443 408
538 506
634 592
685 687
695 715
718 740
748 744
739 754
706 725
680 703
680 685
651 686
594 630
560 601
554 579
551 588
545 574
554 575
580 579
578 606
556 585
556 582
564 569
539 559
498 514
476 485
480 462
451 451
393 392
362 358
357 331
341 321
310 279
288 251
287 232
272 240
242 210
233 197
234 181
221 177
211 161
252 197
349 277
432 394
498 478
583 579
679 669
738 752
743 745
740 738
758 756
755 758
729 740
715 733
707 731
683 710
647 671
634 652
641 660
623 650
594 624
600 629
628 650
627 646
601 617
589 603
603 618
586 604
538 555
503 521
489 504
463 474
423 425
395 390
383 381
351 353
311 311
301 295
301 290
283 266
252 232
242 217
258 230
231 214
223 189
257 223
349 316
433 418
535 506
616 598
706 706
734 758
743 751
746 751
760 758
736 756
729 732
721 727
736 749
686 733
653 687
634 671
644 678
629 673
624 648
618 644
641 674
619 680
617 654
604 642
598 638
562 616
541 575
521 549
514 541
451 506
418 449
395 420
393 407
355 372
328 323
308 297
318 303
288 290
273 251
255 228
253 222
228 204
224 176
234 177
293 242
342 324
438 407
541 518
643 630
687 702
729 735
740 738
759 757
742 758
729 742
719 737
724 746
694 733
673 693
646 667
646 677
609 670
609 647
617 650
633 664
615 660
613 641
614 638
631 656
585 636
557 587
534 561
531 550
494 520
464 465
430 428
421 422
373 394
358 354
343 332
337 325
310 309
304 282
301 271
307 278
263 259
252 227
266 239
333 302
390 374
470 447
553 541
651 657
686 731
723 747
737 747
747 757
725 750
718 729
702 714
692 715
629 684
599 634
586 614
593 613
566 596
562 575
596 580
606 618
587 607
579 595
583 585
573 589
544 556
524 530
515 499
479 492
424 439
399 411
392 382
364 363
323 317
302 291
315 276
305 285
269 247
249 229
251 210
246 215
248 207
293 247
387 323
477 447
549 533
633 628
710 701
750 758
739 743
738 737
756 737
758 757
716 733
698 721
696 706
681 702
642 658
617 632
626 621
622 645
601 626
603 628
612 625
607 635
587 613
579 601
587 585
556 583
498 532
471 504
468 478
441 457
392 400
361 363
362 337
346 338
307 293
285 268
281 246
271 243
252 214
245 198
249 179
227 181
197 149
218 169
298 228
380 327
459 414
555 522
666 626
735 735
741 751
739 749
754 746
753 759
737 741
732 733
740 730
718 746
673 710
658 697
657 680
638 679
615 655
619 654
652 661
649 685
614 654
605 647
615 637
605 637
565 591
534 556
527 527
505 528
459 476
430 441
411 404
384 384
351 342
339 320
345 301
321 301
281 262
272 250
282 240
271 238
238 201
217 179
229 196
247 213
280 250
358 334
464 449
559 554
627 630
692 701
754 755
759 758
729 743
728 741
745 755
724 741
682 703
657 679
661 685
642 669
601 626
588 614
605 627
614 634
609 622
610 619
625 641
611 637
574 605
562 589
555 578
520 544
476 495
453 465
453 462
404 428
364 373
339 345
337 339
309 320
295 281
273 257
278 265
244 252
238 218
226 199
228 195
227 204
286 243
369 326
486 452
547 555
618 621
681 695
748 757
745 759
740 738
730 730
745 753
709 751
689 712
658 684
642 668
602 644
589 610
584 599
599 618
567 618
567 600
574 605
596 622
570 609
556 578
536 558
541 564
495 539
463 480
428 441
412 418
373 386
351 339
323 303
313 295
266 270
252 231
244 214
243 205
209 182
199 151
195 140
214 154
178 138
159 97
146 81
166 98
204 149
292 223
389 330
515 475
589 592
672 667
721 729
761 759
743 759
741 740
740 737
757 757
719 757
705 731
690 719
691 719
654 694
638 662
635 657
659 686
637 690
634 667
633 666
647 678
624 668
613 634
593 609
588 608
536 579
509 527
485 495
469 474
417 435
390 388
368 361
369 362
324 336
300 293
288 276
290 272
265 254
252 220
239 204
245 212
212 199
210 175
237 199
312 275
387 368
487 458
609 563
680 677
704 727
734 747
754 746
754 759
734 738
715 724
718 711
694 717
641 669
615 641
612 620
597 620
578 598
582 597
613 603
614 632
587 615
585 615
597 611
587 613
546 570
517 540
514 514
487 511
433 456
395 418
380 383
350 360
316 314
299 286
302 258
282 261
248 222
237 208
245 193
229 184
198 147
195 138
244 165
312 257
377 330
472 437
583 544
664 652
710 708
742 739
757 739
759 757
727 741
720 738
723 730
701 729
659 689
631 659
633 638
615 645
573 607
568 603
589 607
598 628
586 610
579 601
594 595
583 609
541 569
520 543
506 510
475 490
433 439
404 402
399 367
367 353
316 300
295 273
293 251
278 241
239 196
220 174
231 165
221 177
189 144
171 125
173 111
191 137
238 182
332 276
455 390
554 532
618 616
690 704
759 750
761 759
742 744
738 736
758 737
757 757
719 735
694 721
691 704
670 700
642 666
633 651
654 649
651 674
629 654
636 659
653 658
641 663
612 633
597 615
602 624
572 596
511 539
478 506
468 490
441 456
396 401
364 363
358 357
336 333
297 290
281 268
275 258
261 239
238 208
229 194
239 202
219 179
180 141
178 134
225 177
301 248
380 328
482 439
605 576
685 676
724 729
745 750
760 757
755 759
735 736
734 732
743 751
700 739
667 695
645 674
645 670
614 652
602 623
602 623
633 658
615 670
615 649
608 648
619 658
594 646
579 609
555 580
542 570
487 539
464 487
442 457
429 436
383 399
359 353
342 329
351 334
312 315
294 274
283 259
290 259
267 242
257 208
248 193
287 235
322 300
407 371
505 474
603 586
657 668
715 720
741 739
758 756
740 758
725 739
713 733
713 738
671 714
635 661
601 629
600 632
562 619
558 589
560 586
580 604
575 611
582 598
586 597
600 614
554 600
533 557
513 533
507 519
462 480
425 424
396 387
391 380
342 350
317 298
292 269
288 260
259 240
247 207
232 185
231 187
192 172
192 151
228 186
319 276
394 373
497 470
593 579
697 701
728 758
744 752
743 749
757 758
736 757
735 734
720 727
723 743
674 725
652 681
635 659
631 653
605 641
606 621
613 625
641 658
612 657
603 631
597 625
602 630
570 608
538 557
507 526
502 523
452 493
423 437
390 399
373 378
333 347
313 305
321 281
294 281
250 244
237 224
243 208
234 204
205 165
199 154
253 183
325 282
399 364
501 477
607 582
689 690
734 741
746 744
757 743
759 757
734 745
729 739
741 737
726 743
681 703
654 676
659 659
647 675
613 644
605 639
622 642
630 664
619 650
617 644
629 634
612 646
568 606
547 583
538 554
505 531
458 478
428 440
423 407
392 397
332 334
304 306
305 283
291 276
265 238
249 215
257 197
247 205
215 169
205 154
207 137
217 159
261 202
352 297
480 411
576 547
630 623
697 706
756 748
762 758
743 745
735 734
756 734
742 757
696 725
669 702
652 674
630 666
603 632
600 622
624 622
624 650
604 635
612 643
634 647
625 652
593 618
576 598
584 580
561 581
511 527
478 492
465 459
437 440
398 393
373 360
366 333
344 335
305 297
295 284
301 269
285 262
258 231
248 215
262 207
267 231
278 248
350 328
460 428
559 549
628 624
690 694
758 740
759 758
737 747
734 744
735 735
713 735
674 695
652 670
647 668
613 635
565 590
559 581
580 598
593 605
585 593
588 598
615 629
611 633
580 603
561 585
552 575
526 547
486 501
459 469
448 459
410 425
358 372
336 345
334 336
315 308
282 267
267 245
279 254
266 236
233 197
220 181
250 207
309 264
384 338
484 441
598 571
658 668
714 722
744 750
761 757
743 759
735 736
728 729
740 753
695 742
658 690
628 663
619 651
590 637
589 614
591 610
610 633
580 637
583 622
593 630
611 643
579 624
555 585
534 559
538 562
487 532
452 471
414 430
401 411
365 379
345 332
319 296
314 291
272 271
264 235
259 220
257 213
226 191
212 157
206 144
224 161
221 182
276 224
371 325
498 460
590 576
673 655
735 731
759 757
747 758
744 753
745 750
753 758
727 753
722 731
715 728
718 741
666 721
646 682
643 677
664 694
649 690
645 669
643 668
668 699
642 698
631 662
610 639
600 627
561 598
539 553
514 518
498 505
436 469
404 414
385 387
378 373
335 336
310 292
294 271
306 280
271 265
251 225
235 207
240 207
218 193
208 162
190 141
207 162
232 212
322 287
435 402
554 529
624 628
698 699
744 740
759 757
750 759
738 748
731 742
747 756
731 752
714 721
683 696
678 702
638 689
634 662
629 655
637 666
622 667
629 657
663 663
655 686
609 655
587 631
586 614
571 609
530 559
494 518
483 483
456 478
408 424
381 391
365 354
338 336
306 294
293 271
302 251
281 253
243 215
232 204
247 193
239 191
208 151
189 128
200 113
198 129
201 130
259 196
361 295
468 426
560 527
647 624
730 698
758 757
736 747
735 745
752 744
735 751
690 713
664 689
663 667
637 668
583 617
559 597
572 591
583 611
583 603
592 605
616 609
614 637
587 613
581 605
579 585
548 567
505 518
482 485
484 454
447 439
386 377
355 344
351 318
338 313
308 274
287 251
295 239
288 256
264 229
254 219
251 200
237 195
224 177
256 205
342 271
417 382
478 460
567 562
666 655
729 740
740 743
738 737
758 736
755 757
719 735
690 712
671 682
638 665
597 617
579 591
587 576
578 596
561 582
584 604
627 625
639 652
627 644
632 650
660 658
653 679
610 638
586 616
581 593
560 583
523 537
494 502
483 473
454 470
411 425
397 406
394 383
377 375
368 359
414 397
515 501
595 587
643 650
714 734
761 758
762 759
752 752
746 742
758 755
757 758
730 741
722 736
711 728
680 702
642 662
630 648
646 664
633 658
603 634
609 642
637 667
639 666
613 637
596 621
603 632
584 617
538 568
503 532
483 511
454 476
414 426
389 391
379 378
328 345
299 297
287 277
290 271
251 239
229 197
217 178
235 191
204 178
188 135
170 114
191 131
228 180
324 260
427 369
550 511
615 622
690 693
743 749
761 758
745 759
735 738
733 733
758 756
717 757
687 721
661 702
657 698
626 680
612 642
597 625
614 645
594 650
601 632
605 632
611 637
583 624
571 593
559 575
561 573
502 538
467 478
440 443
426 421
376 377
338 317
303 277
303 275
258 250
234 201
206 168
195 153
166 130
159 97
150 80
149 77
106 56
90 16
81 8
104 31
128 64
205 133
300 237
424 374
495 480
565 539
612 597
661 654
666 679
674 672
668 665
672 680
629 668
615 633
605 615
599 602
555 569
537 531
532 518
552 537
519 528
503 494
496 486
508 493
486 480
468 440
438 410
429 405
380 379
357 330
328 296
308 271
265 234
242 188
226 161
223 153
173 119
149 69
135 46
140 40
117 23
98 6
79 9
84 28
57 26
47 8
47 9
92 29
142 78
218 133
315 199
363 278
379 310
410 342
450 367
461 392
436 366
419 350
429 337
419 351
380 312
355 287
343 259
324 251
306 224
309 222
333 221
327 241
306 221
313 227
336 229
327 230
296 195
280 176
291 159
276 161
228 112
197 82
190 51
174 38
141 4
124 7
124 9
102 28
71 5
68 8
71 8
57 20
31 4
26 7
43 9
39 28
14 6
37 9
114 32
188 99
234 133
277 171
333 205
360 255
357 249
364 251
366 233
348 225
321 192
312 174
321 157
295 151
252 106
243 96
263 95
275 113
264 100
269 106
302 120
312 153
295 140
287 134
287 121
277 122
254 94
244 80
243 57
217 53
177 12
165 8
173 8
158 21
119 6
107 7
124 9
125 27
93 9
84 9
91 8
111 20
150 36
209 84
281 138
329 211
352 239
389 275
422 293
420 305
398 279
390 264
405 253
389 256
339 207
313 178
313 157
307 158
292 139
287 133
310 141
321 177
316 176
326 189
339 191
335 202
318 184
315 179
329 193
303 167
258 123
242 102
247 101
235 80
204 39
187 16
195 31
192 28
174 9
163 9
164 23
156 20
142 7
151 8
202 54
254 109
299 167
364 242
438 321
472 364
475 376
484 393
512 426
509 426
472 392
454 374
456 373
445 359
421 328
406 310
410 317
383 308
382 292
395 303
418 329
405 332
409 321
415 327
444 355
413 348
397 310
382 290
387 287
363 268
345 225
322 197
325 199
291 184
289 153
284 141
282 136
256 119
250 99
251 95
267 111
227 96
218 67
228 79
293 151
343 231
399 288
447 355
515 440
526 489
549 497
550 506
554 516
528 505
523 479
520 472
532 484
485 461
468 419
463 407
479 415
457 404
453 386
459 393
495 431
482 443
482 423
475 419
486 427
469 420
465 393
449 372
446 371
399 348
382 305
374 288
377 284
341 261
326 228
321 218
340 235
309 224
295 190
285 179
296 186
280 180
275 158
280 164
338 233
374 310
440 369
495 438
545 503
553 537
571 546
584 559
608 586
567 571
547 530
538 516
548 518
521 499
501 458
483 439
500 458
482 464
492 452
496 459
514 480
506 489
516 483
524 487
536 503
494 488
479 451
471 438
478 438
441 410
418 371
404 353
418 365
391 352
379 315
366 297
372 300
355 292
355 272
373 259
353 265
323 239
337 246
396 293
446 371
479 418
524 476
589 531
619 596
606 595
601 600
612 597
605 604
581 573
567 554
567 530
544 530
505 491
500 482
511 477
506 488
492 476
502 489
540 507
548 542
520 515
512 508
525 501
525 508
502 475
483 449
484 425
470 429
437 390
428 373
425 350
405 342
380 310
377 301
397 293
383 301
345 265
339 257
354 252
353 258
328 232
338 246
406 305
467 407
508 464
553 527
596 575
620 628
623 638
634 653
652 654
637 669
598 634
595 625
610 618
596 615
563 576
550 560
574 559
580 587
557 567
556 570
576 576
587 599
581 587
579 582
590 572
575 580
538 541
529 525
533 508
510 499
476 462
462 443
478 432
462 438
418 395
403 377
411 368
408 376
389 351
376 336
385 325
378 339
354 310
349 299
359 292
381 330
419 376
485 452
564 529
603 611
607 633
637 673
676 699
686 726
663 702
649 690
665 685
660 704
630 669
613 652
611 633
602 638
589 620
598 626
625 658
621 660
599 642
607 650
631 671
623 662
590 628
575 612
589 624
578 613
535 568
513 543
511 536
500 517
479 484
467 464
469 463
451 444
421 409
420 398
427 399
411 378
387 347
383 337
407 357
399 344
359 303
344 286
361 299
392 332
431 380
484 451
557 549
587 618
622 652
652 696
677 732
663 740
661 724
662 724
683 744
641 730
620 688
606 673
617 678
599 669
592 642
588 640
617 673
600 683
608 670
611 672
621 682
602 676
599 653
596 643
602 648
553 624
534 576
528 557
535 555
501 530
479 488
463 469
476 480
445 467
431 427
414 408
419 407
399 396
397 370
390 358
394 367
364 359
357 328
353 319
361 321
348 322
385 352
446 424
537 530
566 602
600 633
631 677
674 727
675 747
677 732
665 722
673 735
637 724
629 687
609 664
605 656
575 638
573 617
585 625
618 665
594 672
596 658
604 668
632 693
619 691
606 662
590 645
598 656
562 640
551 598
530 571
518 557
484 532
472 496
467 480
470 482
427 458
415 418
413 407
428 413
402 395
383 360
375 348
395 363
371 353
360 319
368 327
424 391
472 464
539 527
592 595
650 677
654 723
679 736
697 743
713 758
674 744
657 717
651 712
664 729
618 711
591 663
576 646
590 657
582 660
589 649
617 654
617 688
600 679
608 678
627 677
614 678
579 641
564 619
580 604
566 608
516 554
490 524
487 497
476 490
448 450
426 419
427 395
413 403
384 369
377 359
377 342
364 337
342 309
340 301
342 275
333 284
316 264
356 313
437 391
510 495
553 559
608 633
678 701
717 757
713 752
718 748
732 744
729 756
704 736
692 731
695 724
677 741
637 708
630 701
644 699
642 714
631 703
641 713
677 728
683 757
654 735
645 728
653 721
643 723
611 686
588 658
587 634
566 634
524 588
507 563
501 537
482 527
455 490
443 473
457 459
441 465
405 425
396 410
404 396
397 396
368 358
358 341
389 353
432 426
476 479
539 556
610 631
663 712
689 741
721 742
757 744
752 757
718 742
707 739
713 737
693 746
652 712
632 695
641 686
635 708
608 683
607 687
628 697
638 723
627 712
629 714
645 712
637 733
599 693
586 674
583 650
558 631
519 582
499 554
505 529
486 525
437 471
416 443
416 421
407 416
382 378
367 356
377 367
367 351
339 318
333 303
332 298
319 281
309 267
341 307
427 408
496 496
535 559
594 638
669 727
718 758
732 749
737 743
757 755
749 758
723 743
718 744
714 753
691 741
660 716
655 715
677 742
667 743
640 723
648 732
680 753
688 756
668 733
656 723
671 742
644 734
624 692
601 666
587 650
546 623
528 582
513 559
511 554
459 525
438 477
426 457
434 455
402 431
381 391
361 370
374 382
347 375
335 340
320 318
320 314
304 303
330 306
379 358
462 458
509 549
580 616
650 698
716 758
730 759
736 744
736 739
759 756
739 758
720 742
703 734
707 746
683 744
673 721
657 712
672 738
650 747
660 735
669 742
682 755
663 750
661 728
661 728
674 748
623 725
595 676
574 651
573 645
539 616
510 565
481 532
484 532
448 511
433 468
417 441
410 431
384 413
380 385
376 373
383 377
340 355
328 316
326 303
346 315
355 339
406 383
477 466
575 584
619 670
669 715
703 749
744 759
735 759
735 740
728 737
727 757
678 751
661 721
647 709
642 707
607 689
600 667
610 675
650 718
635 729
636 711
638 716
658 737
644 733
634 701
613 677
610 678
565 652
550 606
529 577
512 553
469 519
453 479
443 461
447 465
399 439
380 398
372 384
385 388
363 372
343 333
351 314
343 333
349 345
404 400
480 474
544 569
594 635
654 707
725 743
747 757
726 751
721 744
742 743
737 758
696 733
668 712
666 694
646 704
607 666
597 656
604 652
610 672
606 668
620 679
645 683
636 707
601 678
595 670
604 657
581 647
536 597
510 565
513 540
495 540
446 485
413 451
401 421
387 414
364 379
348 357
350 335
332 339
302 305
301 295
311 283
295 276
279 256
316 291
409 367
486 481
535 549
600 635
681 717
735 759
744 753
742 745
756 741
753 757
726 745
718 745
714 740
694 746
663 722
657 718
677 722
668 746
637 725
641 732
668 738
675 757
650 734
635 722
646 716
635 731
594 689
562 655
547 620
524 605
491 561
476 534
473 505
441 494
398 446
386 427
393 410
375 399
343 360
331 340
348 332
344 343
307 302
284 279
292 270
319 309
365 358
436 439
531 534
597 650
639 713
695 752
748 755
753 759
732 744
729 738
755 741
743 757
694 740
672 731
674 727
665 739
641 716
629 709
649 741
652 751
638 736
642 740
652 750
641 741
615 711
608 696
617 701
592 678
538 622
514 593
511 582
490 553
443 499
415 466
417 466
403 448
370 407
351 383
345 377
333 360
314 332
306 317
307 319
285 299
265 278
305 318
388 404
459 485
517 556
586 640
676 747
709 758
726 756
730 750
743 757
724 757
714 736
695 731
691 744
639 731
622 695
616 690
624 699
602 696
598 681
606 690
645 732
621 739
608 708
598 700
605 705
578 690
557 647
526 613
520 608
473 582
459 535
437 507
427 489
390 459
378 421
374 406
389 416
348 397
334 358
327 345
339 347
317 330
306 297
318 309
389 387
437 469
512 536
576 614
645 702
676 756
713 743
732 743
755 757
716 758
697 735
683 731
681 736
633 707
600 663
583 648
603 673
580 678
577 659
578 665
604 691
599 699
605 683
597 671
601 680
558 659
542 615
528 592
517 574
470 536
444 487
427 460
434 461
388 434
364 386
350 365
360 366
344 354
318 310
306 293
322 306
311 316
349 335
408 403
494 504
554 595
623 662
681 733
740 757
731 759
729 750
731 747
746 759
713 754
695 730
679 723
685 741
644 728
622 688
612 681
629 700
619 705
626 694
628 695
645 723
614 719
607 687
600 673
595 664
556 632
534 587
540 560
516 559
467 512
439 476
433 449
416 441
389 404
373 381
375 359
360 366
325 328
322 321
335 315
356 352
395 396
469 478
573 571
644 682
675 734
713 751
756 751
760 759
742 749
736 739
752 736
745 757
705 738
686 732
680 719
666 722
642 699
643 696
669 699
666 728
639 709
639 712
654 711
648 718
613 681
592 656
595 633
573 636
523 583
493 550
482 519
470 510
435 467
417 438
417 411
398 412
363 369
354 354
361 337
344 326
312 288
302 271
335 279
374 344
409 390
481 478
577 570
650 672
694 725
733 742
757 743
759 757
735 747
734 745
740 740
721 748
686 721
667 704
676 692
657 705
618 673
615 672
630 672
637 693
620 675
615 669
633 667
623 682
587 641
568 617
557 588
534 572
497 525
477 494
477 466
445 455
399 405
382 381
385 360
372 351
340 311
329 292
338 278
334 291
303 256
290 243
290 224
278 222
264 203
292 229
367 294
440 405
501 485
579 581
660 661
700 733
711 740
725 736
751 756
739 757
693 730
672 717
673 715
654 694
622 654
606 633
622 650
623 655
607 638
619 647
637 665
635 665
618 643
611 634
624 644
598 622
548 572
526 545
521 534
499 504
458 454
428 421
430 419
410 398
375 357
360 336
357 332
346 317
323 287
314 272
320 278
282 259
269 229
286 242
353 308
405 379
481 450
558 541
651 650
682 722
716 743
727 745
744 756
722 752
712 729
694 713
691 716
639 692
613 643
598 622
601 621
575 609
575 593
584 599
616 634
595 640
587 612
580 605
587 609
555 590
534 547
506 515
500 509
450 480
425 427
399 394
387 375
350 343
341 307
330 287
337 289
290 263
280 227
265 210
271 211
253 199
246 168
229 146
244 161
258 200
333 260
421 358
521 474
582 571
651 641
710 715
758 757
743 758
730 745
724 739
742 755
719 752
697 721
672 700
676 711
639 701
634 670
626 661
633 671
621 672
629 660
642 669
659 689
615 675
598 635
587 616
589 609
546 573
515 517
488 483
490 480
446 451
419 396
391 362
382 347
352 324
341 290
326 270
326 272
289 256
281 224
279 214
280 209
244 184
226 151
235 158
301 229
345 310
423 386
512 493
613 611
671 697
720 735
741 740
759 757
734 759
733 742
729 740
724 743
683 723
662 686
675 671
659 681
616 650
605 636
627 640
641 664
632 652
627 645
641 638
632 657
597 623
581 602
570 573
539 554
501 509
478 478
478 448
441 434
383 376
358 348
362 326
348 318
314 274
294 250
305 233
298 244
273 211
258 193
254 171
239 166
227 145
259 173
343 240
416 353
480 437
569 545
665 637
721 720
733 741
735 736
757 736
759 757
716 735
689 714
679 690
657 681
620 639
600 615
605 600
598 623
580 610
596 624
619 635
620 652
602 635
602 630
624 624
607 630
555 576
527 545
521 516
502 503
464 453
428 411
423 380
403 379
369 338
355 319
353 295
337 287
313 256
309 242
321 227
300 229
269 202
298 233
373 299
456 405
522 484
593 573
685 662
738 757
740 751
738 749
744 743
733 750
703 725
684 706
676 678
637 668
586 616
575 599
590 591
584 598
568 581
576 588
615 606
622 640
589 610
576 599
581 585
576 586
544 544
515 506
504 469
472 459
423 405
403 377
391 345
361 324
325 282
313 263
326 276
307 254
262 211
247 192
257 197
275 206
304 237
371 314
479 440
573 555
637 635
705 717
761 757
761 759
741 743
740 739
758 755
748 757
703 729
687 720
692 720
671 698
635 658
623 644
650 672
659 684
642 666
639 668
655 687
653 684
634 658
617 638
617 642
574 619
541 568
516 538
499 514
454 477
426 425
403 394
405 391
357 364
337 318
325 298
330 296
298 270
281 230
263 209
278 223
277 247
335 289
414 376
518 494
596 600
676 676
739 740
759 756
751 758
742 750
739 746
755 758
729 754
708 725
688 712
691 722
649 708
631 670
621 662
639 680
631 689
641 681
644 682
664 710
633 707
628 679
617 664
613 652
568 616
540 563
514 529
512 522
461 489
429 430
406 400
404 389
376 366
363 328
345 304
353 309
318 293
307 256
299 240
316 256
342 301
415 366
503 466
612 592
655 680
712 732
744 750
761 759
745 759
735 737
720 730
725 752
672 733
641 683
611 653
604 644
581 628
583 608
595 615
627 651
610 666
623 657
636 671
656 690
632 677
617 644
603 626
609 631
561 605
531 549
503 514
495 497
455 464
431 416
407 385
409 386
367 364
349 323
339 305
344 306
344 319
391 358
470 444
581 572
637 669
703 732
746 753
761 759
749 760
745 743
756 737
754 757
718 743
703 732
697 713
671 703
636 668
628 655
655 655
660 686
636 669
643 677
667 685
669 702
647 676
630 657
636 641
612 643
561 591
531 557
513 519
484 497
446 449
420 416
423 389
398 385
355 342
344 326
350 312
338 309
306 269
291 249
315 247
349 307
394 358
478 454
585 560
674 676
733 743
749 749
757 748
759 757
744 752
742 748
758 747
755 758
726 734
713 725
724 721
711 742
673 711
662 708
681 713
690 737
682 726
682 723
698 721
688 741
649 705
632 686
624 657
593 638
550 587
523 552
522 521
491 509
436 451
411 419
409 393
396 384
365 343
347 319
351 299
339 307
310 272
301 255
309 247
339 289
391 342
480 435
596 540
672 663
715 726
745 752
761 754
761 759
744 744
737 737
758 737
752 757
713 738
688 725
687 714
673 718
653 695
653 691
681 699
681 728
659 707
663 708
675 702
659 698
623 659
604 633
606 610
580 605
524 545
493 511
488 480
465 464
426 412
397 375
395 374
375 348
337 306
323 287
320 279
300 257
274 225
262 206
269 213
258 202
256 209
320 279
425 390
524 495
593 574
659 656
737 750
759 758
739 749
735 745
739 752
724 744
688 708
665 683
659 676
624 648
580 601
572 588
578 592
575 588
560 573
565 578
606 619
586 618
566 583
544 564
540 557
503 531
481 482
453 445
439 430
381 396
354 342
332 313
324 297
282 264
258 221
243 198
251 206
216 190
199 148
187 128
195 127
188 127
229 151
296 222
404 345
474 454
560 532
630 612
689 684
699 719
707 716
702 715
707 724
648 695
605 633
572 595
555 572
518 539
495 492
485 478
512 506
497 517
508 506
513 513
530 531
514 530
506 506
494 490
492 490
437 462
409 406
383 374
375 352
329 312
302 260
281 230
284 229
246 208
228 164
210 140
211 135
185 114
177 81
174 73
217 120
258 196
347 278
448 389
555 508
608 593
662 645
699 692
737 746
703 747
672 704
645 676
627 656
574 609
530 540
491 495
489 492
459 482
465 464
478 474
505 501
504 514
517 510
526 517
544 539
502 524
484 483
466 461
462 446
419 408
387 354
360 320
358 315
317 289
298 243
271 211
265 201
237 180
227 151
222 141
258 181
292 250
378 328
478 437
586 556
639 639
692 690
752 734
758 757
730 751
705 732
690 709
660 692
607 633
568 583
550 535
522 529
489 492
499 498
528 509
540 534
533 528
544 536
575 544
570 567
526 525
503 504
502 482
483 470
439 418
407 378
397 342
368 334
322 283
301 257
294 228
267 210
234 171
231 164
288 200
357 301
421 384
520 500
631 609
711 718
744 749
745 743
757 741
759 757
734 744
724 736
710 715
679 701
629 647
601 612
603 588
587 597
560 573
568 581
601 597
615 623
602 611
603 611
624 611
614 628
571 584
541 553
528 521
501 503
457 450
425 410
413 373
382 366
336 317
319 294
317 269
293 255
267 222
289 238
377 307
468 429
534 512
624 620
730 722
761 759
752 757
749 747
758 744
759 757
737 745
735 743
736 735
713 733
677 698
663 684
681 682
676 709
653 696
668 714
704 735
719 757
705 735
699 729
718 730
702 746
654 699
622 665
603 629
572 608
528 555
503 521
499 490
471 484
425 434
406 409
409 388
404 389
413 395
480 461
591 582
680 682
738 750
752 761
761 758
762 759
753 756
750 748
758 755
760 758
739 748
738 746
753 757
740 752
715 731
714 730
741 755
741 758
715 743
718 743
741 757
741 757
716 734
697 724
701 738
676 723
630 676
606 647
590 629
560 597
522 551
500 523
502 522
458 494
427 447
411 423
412 417
381 392
361 349
361 342
416 398
461 472
547 543
631 640
729 752
751 759
753 756
753 752
759 756
751 758
744 753
742 750
759 758
739 759
725 734
717 730
731 755
699 758
689 735
688 735
709 752
699 752
700 733
693 727
702 745
660 734
637 693
617 669
608 652
558 616
527 563
504 530
506 527
457 497
425 441
400 412
397 403
365 381
348 341
330 321
339 331
305 320
295 286
281 267
277 261
268 262
314 293
394 374
507 497
566 599
641 668
710 743
761 759
749 759
741 741
736 736
756 757
723 758
705 731
681 712
677 711
649 698
644 675
646 674
669 705
647 716
654 703
661 712
679 730
651 716
633 684
616 665
616 668
565 639
529 580
497 545
486 528
445 495
419 446
391 413
386 412
345 391
332 352
324 336
325 329
300 310
294 281
288 268
297 275
258 255
264 241
316 293
410 389
487 484
573 561
648 650
733 754
742 759
744 753
743 749
751 758
726 752
714 729
724 724
694 733
636 692
612 667
614 654
608 662
590 640
586 638
619 649
624 681
597 658
588 647
584 630
567 623
530 580
506 547
501 512
466 501
409 442
379 409
373 377
347 356
307 305
287 276
296 255
283 260
249 220
232 203
236 189
227 187
203 156
189 137
198 123
212 164
248 206
335 305
451 411
542 530
603 605
664 678
732 733
753 757
724 746
710 738
712 733
694 737
654 695
621 659
614 630
593 635
557 598
552 590
565 585
569 602
561 590
567 591
592 591
580 606
536 569
517 549
514 528
493 514
446 460
411 420
406 389
378 381
330 328
301 295
291 266
273 255
241 214
225 193
229 176
212 184
179 148
168 134
176 121
179 132
204 158
282 237
400 342
497 475
558 549
621 629
689 691
722 748
720 737
714 730
718 721
692 730
640 682
612 653
598 617
566 597
533 557
526 544
553 547
553 573
530 555
535 563
558 568
558 581
533 551
512 529
514 513
489 513
441 463
410 428
392 392
367 373
332 328
315 300
320 303
297 274
258 232
248 214
250 210
237 187
210 153
223 163
298 244
380 333
446 410
532 505
622 607
685 678
712 712
729 731
746 755
720 746
666 700
633 669
615 645
570 595
517 535
497 507
513 523
515 528
500 516
516 535
554 571
571 590
568 583
567 582
580 602
550 593
525 552
507 527
496 508
450 471
423 419
400 386
402 383
354 353
329 303
311 276
310 268
286 251
309 254
369 316
478 434
548 543
634 621
706 706
761 758
748 759
744 744
742 739
758 756
719 757
691 724
667 705
657 696
612 663
586 619
573 605
596 629
581 639
590 622
601 632
624 654
611 654
607 628
595 611
591 613
537 587
508 532
483 499
470 475
417 429
386 375
365 343
367 341
325 317
302 270
285 250
290 249
280 250
322 273
392 347
506 476
578 588
664 668
739 748
761 759
749 759
745 745
742 740
758 757
730 758
710 734
696 724
691 723
655 700
635 661
623 648
647 676
627 682
633 666
636 668
649 682
632 678
625 650
614 633
612 633
555 604
526 549
498 517
484 496
433 452
395 395
366 360
362 355
318 330
292 282
272 257
276 254
267 253
308 275
383 351
493 477
562 587
645 664
725 747
761 759
750 760
744 744
743 740
759 757
735 759
718 736
702 727
699 727
665 707
650 672
663 661
655 687
632 675
636 674
656 676
649 687
625 664
616 651
624 635
606 641
552 591
529 567
522 540
498 526
456 476
423 438
417 408
392 406
348 359
327 335
318 307
298 295
274 259
287 264
361 311
434 413
497 489
584 587
680 677
747 758
747 749
744 742
757 739
759 757
732 743
713 731
703 712
674 701
628 656
604 627
606 608
592 625
565 602
571 609
597 617
601 634
580 615
576 609
591 603
577 614
530 568
502 541
495 515
472 500
431 449
399 408
388 372
359 363
309 309
285 279
275 244
245 220
208 172
188 141
199 124
215 155
247 193
334 289
451 399
551 523
614 595
670 664
732 719
747 757
720 741
705 734
694 714
662 700
609 646
572 605
561 570
527 564
486 526
482 521
510 528
526 553
517 540
519 540
542 542
540 565
512 533
496 513
484 485
456 467
415 417
390 385
388 354
356 342
311 298
294 274
300 254
283 244
246 200
226 175
245 173
276 224
317 270
390 353
488 446
568 552
622 613
671 668
715 729
712 741
675 713
659 698
648 683
603 636
538 567
498 520
497 513
482 494
449 458
448 457
478 483
498 499
499 492
502 490
518 510
507 504
475 469
461 448
447 429
411 392
363 337
338 305
339 305
310 274
255 222
230 194
230 187
220 166
199 138
223 160
309 257
382 359
472 446
560 545
640 640
674 701
708 727
727 734
747 755
694 743
659 691
631 661
615 638
559 591
519 529
492 497
508 512
489 515
497 497
503 503
525 525
517 531
524 516
519 506
522 513
473 492
451 447
428 419
415 401
365 361
335 312
317 287
321 289
275 262
246 212
221 184
226 183
232 196
294 239
376 327
492 458
564 571
649 647
720 727
761 758
745 759
738 738
736 734
758 757
711 750
675 703
647 677
643 667
610 642
594 602
583 590
607 619
593 630
603 617
603 619
611 630
587 621
578 592
565 575
559 573
494 537
467 483
450 455
437 434
390 396
366 348
339 317
339 314
296 288
276 246
277 241
331 294
392 369
483 448
572 546
675 669
717 752
745 753
749 753
761 759
738 757
733 733
728 729
734 749
682 727
643 674
615 650
621 653
601 644
605 623
604 624
630 657
615 669
621 650
617 644
614 644
578 622
559 583
537 556
535 555
478 522
449 471
431 444
432 434
398 404
373 356
376 328
356 333
342 321
384 354
463 421
542 521
609 594
685 675
756 737
759 757
743 751
734 744
748 742
745 754
702 717
668 686
666 663
643 666
599 623
582 605
587 597
591 616
587 609
598 615
618 613
604 631
570 601
566 595
573 579
549 566
504 517
479 486
484 462
463 461
411 406
378 374
370 345
354 333
330 296
336 293
396 331
464 429
526 500
608 592
690 668
736 741
738 742
738 737
757 737
758 757
708 727
679 704
672 681
646 668
606 623
576 593
581 577
576 600
556 582
561 584
573 582
570 593
553 570
550 559
560 542
533 540
480 488
459 462
455 435
430 417
384 365
354 331
353 305
331 301
287 254
273 237
306 252
371 328
446 405
543 505
646 601
709 711
735 747
743 752
761 752
760 759
735 738
727 731
749 733
735 757
680 712
651 690
650 675
644 682
625 655
620 645
641 646
642 676
619 653
618 649
619 632
595 624
558 583
540 558
545 537
515 528
457 473
431 444
428 419
413 409
374 362
346 331
349 338
354 340
375 360
441 430
534 531
615 623
676 692
737 741
759 755
759 758
735 748
732 745
752 757
746 757
709 729
686 712
690 722
670 710
626 666
606 649
611 654
610 652
599 635
598 626
610 643
593 632
557 596
545 580
542 570
509 534
463 484
437 455
438 455
394 427
355 374
329 347
328 339
300 317
284 276
265 252
291 282
316 334
397 398
488 494
583 599
633 678
687 725
723 737
758 756
736 758
719 740
709 734
716 747
682 730
649 682
615 652
617 658
580 647
575 616
569 608
580 618
565 618
571 602
571 596
578 608
529 591
505 547
489 527
482 515
436 479
402 427
378 399
384 403
341 384
318 338
297 315