707 694
483 524
269 343
130 212
45 125
19 40
8 4
7 6
22 28
19 24
5 7
8 7
20 19
18 17
8 5
15 9
32 38
14 53
7 54
14 67
33 85
17 81
15 66
14 70
30 93
9 91
6 72
9 68
20 81
14 80
26 69
25 70
32 93
9 102
17 97
31 109
44 121
30 119
35 106
42 109
63 133
36 133
30 117
30 118
50 131
44 125
42 102
36 99
56 127
38 130
40 113
37 109
45 115
35 112
46 99
67 111
103 151
113 190
151 212
196 253
255 301
274 324
295 330
310 347
341 384
328 395
324 377
320 376
331 385
321 380
326 362
322 355
331 374
304 377
306 362
316 365
335 378
322 374
323 358
327 360
349 385
324 384
312 362
306 358
321 367
310 358
306 332
295 322
299 338
270 334
266 311
263 303
268 306
250 297
250 277
253 275
268 294
242 295
247 289
276 312
333 357
364 388
400 406
430 439
476 493
478 519
490 513
497 520
511 534
499 531
500 513
501 509
507 526
469 520
459 496
463 493
480 502
464 492
459 474
460 475
480 501
457 501
449 478
442 473
453 480
439 471
438 448
451 441
433 458
401 439
395 430
410 424
398 421
377 397
371 388
391 387
387 407
357 382
344 378
355 374
359 383
354 365
365 370
403 391
430 444
445 463
483 499
529 526
550 558
550 556
563 564
594 574
591 598
554 574
543 571
555 566
560 576
542 549
530 536
541 532
537 555
515 536
512 535
523 532
521 541
509 522
512 517
530 514
517 532
480 508
473 503
489 498
488 501
464 473
452 462
466 458
460 477
432 451
419 444
425 437
423 444
412 422
410 414
421 409
408 427
381 406
386 411
418 421
442 451
457 462
493 491
549 526
578 578
571 578
576 592
600 601
610 619
600 599
594 590
601 586
586 603
555 578
549 571
556 561
547 564
530 541
532 537
555 539
547 559
513 537
506 534
523 531
525 538
506 510
494 499
504 496
496 514
468 490
457 479
455 465
446 466
432 444
431 437
445 434
429 449
397 427
394 424
411 421
410 424
389 400
382 393
400 396
405 421
397 416
418 438
466 470
507 516
533 529
564 552
601 596
604 614
586 603
593 609
613 622
611 618
588 593
581 584
597 601
586 597
550 569
540 564
557 575
561 572
551 551
546 545
559 567
551 569
527 548
526 543
534 548
523 537
504 512
502 505
516 521
499 514
462 487
454 480
469 487
466 477
438 443
426 433
440 455
423 457
413 435
406 428
413 435
397 428
400 407
401 402
419 425
402 438
421 443
459 476
519 524
540 549
564 556
584 576
622 619
611 633
606 614
601 614
615 626
602 622
599 596
589 583
592 597
554 592
545 567
544 562
557 568
536 558
529 534
528 530
548 552
513 544
498 519
491 515
505 523
492 514
488 487
477 478
485 496
456 494
452 472
450 465
458 471
439 463
440 444
442 443
459 464
426 462
415 440
415 438
434 448
420 439
416 417
420 422
453 460
458 487
491 499
524 528
568 569
583 593
611 597
630 612
654 643
623 648
616 629
619 628
634 636
610 620
595 592
586 584
601 604
573 601
562 575
556 571
569 582
559 577
562 556
558 550
565 570
531 567
524 544
524 538
531 540
506 525
496 500
492 494
506 513
473 505
456 478
450 471
464 477
451 468
445 443
436 437
445 457
419 456
417 436
416 429
422 435
406 427
413 414
434 428
478 475
485 507
513 521
552 555
604 596
614 609
624 605
649 613
649 643
625 632
619 623
623 616
614 620
592 593
586 580
602 574
594 595
559 573
555 573
576 573
581 583
563 560
555 552
572 550
568 573
539 548
525 540
528 532
525 536
509 511
504 499
513 490
496 507
462 480
457 475
470 467
465 470
442 446
434 434
450 430
443 447
409 421
395 416
405 411
407 418
396 396
397 391
426 403
448 451
462 467
502 503
553 533
580 571
588 575
608 590
644 605
645 634
614 615
607 615
624 614
626 622
606 595
593 583
604 580
598 601
574 580
569 576
577 571
575 579
562 559
564 554
580 550
565 568
529 543
523 539
538 533
533 535
508 506
496 495
511 491
506 510
475 484
462 476
467 469
467 474
454 452
451 442
460 439
447 457
420 436
419 434
434 429
427 431
407 408
405 403
431 410
444 445
444 449
472 479
522 509
562 552
585 562
606 579
635 598
638 632
620 619
624 621
636 619
628 625
610 602
608 596
627 595
614 611
578 587
572 584
593 584
597 594
582 570
572 562
587 585
582 587
561 569
553 562
556 564
549 554
532 529
529 519
540 532
520 527
485 500
481 495
496 503
491 490
468 464
459 456
476 476
470 474
440 449
428 442
437 450
438 443
426 421
421 413
428 429
414 427
390 406
396 408
427 430
450 447
472 460
512 495
572 553
586 585
593 586
603 602
632 626
630 630
634 611
628 606
638 627
609 629
595 601
590 593
599 598
579 591
577 570
580 568
598 589
568 589
555 566
552 565
572 575
558 567
549 539
537 530
548 549
521 547
513 522
503 512
507 516
489 507
487 483
485 475
495 492
458 488
448 465
447 461
463 467
443 455
435 432
429 427
446 448
421 446
410 422
402 417
413 425
402 419
407 400
416 405
452 448
460 481
496 498
543 534
594 576
604 596
622 599
640 615
673 651
650 655
639 634
633 632
648 643
632 633
624 604
609 592
613 608
580 603
573 579
572 572
579 578
560 570
561 551
565 550
581 570
545 566
530 541
528 536
546 545
534 537
524 512
513 504
524 523
497 521
489 495
481 486
487 491
471 482
472 461
469 455
475 471
439 466
429 443
432 440
446 446
426 434
419 414
425 419
464 459
473 486
502 497
531 526
578 567
595 587
618 587
629 596
645 627
618 631
618 615
623 614
634 621
610 609
603 587
624 585
620 606
587 587
574 577
585 574
590 586
580 566
577 556
588 553
578 574
544 548
541 545
549 536
538 539
515 512
511 502
529 498
518 513
479 485
464 478
477 473
479 479
460 451
448 440
459 435
453 456
428 434
421 429
426 423
421 428
407 406
412 402
442 409
455 449
458 459
492 493
548 525
584 563
590 563
601 574
632 587
638 619
614 601
604 597
610 593
607 600
592 575
587 564
595 557
580 575
550 553
549 552
565 547
562 554
543 533
543 530
568 535
563 554
527 527
512 520
521 512
521 518
505 492
495 479
502 474
490 491
463 468
460 464
469 456
460 459
444 436
444 431
463 431
453 448
419 426
413 424
431 422
433 429
416 405
411 401
439 413
463 458
476 469
509 498
552 525
578 560
591 563
612 577
643 589
637 617
608 600
609 602
629 602
621 602
597 577
589 570
607 571
604 593
577 570
569 566
581 565
584 576
576 557
577 551
589 551
576 571
548 549
546 546
559 539
548 539
524 513
519 504
535 524
525 518
489 492
480 488
496 498
497 491
482 465
472 455
480 472
470 471
445 449
442 444
456 454
467 461
481 464
518 490
575 543
597 572
591 575
607 593
641 620
652 623
637 602
628 597
644 619
639 623
615 601
610 596
618 604
615 600
607 583
614 582
634 605
608 608
594 589
596 590
617 601
598 591
586 564
575 556
589 574
558 570
544 540
529 531
535 535
521 527
521 503
517 494
526 513
492 511
486 490
486 486
498 491
474 479
466 455
462 449
479 468
449 464
436 440
438 443
476 472
497 492
532 500
558 524
599 573
597 598
607 591
620 601
641 619
628 620
633 606
643 609
666 635
635 635
619 612
615 609
631 618
614 606
603 577
591 569
604 590
578 590
574 567
569 561
577 570
562 564
563 542
564 538
578 559
539 556
527 531
525 525
539 531
518 518
507 493
502 488
522 512
497 510
486 486
477 480
486 487
473 479
471 454
460 443
462 458
426 452
420 428
426 428
455 450
469 467
501 476
537 504
583 553
576 575
585 571
597 581
620 598
607 591
600 570
595 567
607 588
575 583
564 556
555 546
561 551
543 541
542 520
542 516
557 537
522 534
513 513
514 511
530 519
511 506
499 481
490 475
501 494
471 487
458 459
446 449
451 452
433 439
429 415
442 407
419 418
383 397
373 387
386 381
379 382
357 356
356 350
389 360
411 403
418 411
447 443
497 474
531 512
542 513
556 522
582 532
583 563
560 548
557 548
569 544
560 548
542 526
536 516
549 509
542 528
506 504
495 500
506 494
506 501
489 475
491 471
488 457
472 472
445 449
438 442
442 431
428 430
407 404
401 392
411 381
396 393
355 364
340 356
350 346
345 345
327 317
329 317
368 336
400 390
418 407
453 439
496 467
520 501
528 501
551 511
573 520
565 548
537 529
534 530
547 525
539 528
513 501
506 490
521 488
520 511
487 486
478 483
490 478
490 485
476 461
467 449
477 446
465 463
433 437
425 430
432 421
424 424
407 400
403 392
419 391
410 409
379 388
376 388
401 393
425 419
442 425
477 454
533 491
562 545
559 546
574 562
602 577
611 597
605 583
611 585
635 590
628 615
599 596
596 596
613 593
609 599
589 574
583 567
599 568
591 586
559 559
547 552
554 545
548 547
528 519
519 505
523 519
506 513
474 487
470 481
481 486
469 472
446 443
437 432
442 444
433 440
407 417
408 419
442 445
477 470
505 482
540 509
584 558
598 585
592 584
608 597
632 615
630 613
615 595
617 595
640 619
630 617
593 590
578 583
589 589
587 581
570 552
559 542
567 560
542 559
530 537
527 531
533 534
509 523
503 498
499 490
511 504
471 495
451 466
440 456
451 458
430 443
417 413
402 401
411 418
384 414
376 389
366 381
371 385
355 376
355 354
352 346
364 364
343 372
365 377
407 411
472 462
501 494
533 509
562 536
608 585
602 603
600 588
599 592
619 611
614 613
620 596
618 592
626 613
593 612
585 590
587 586
598 592
575 581
570 559
571 558
593 582
564 580
550 556
542 550
555 557
537 544
526 513
510 501
517 518
487 515
478 488
471 478
475 479
452 468
448 444
446 438
459 455
424 451
412 429
413 427
431 437
416 426
407 402
398 396
410 416
386 414
389 399
407 413
451 452
481 484
527 504
567 535
610 587
602 611
613 609
631 622
659 641
639 632
635 615
637 618
658 645
631 644
619 618
609 612
618 619
604 609
602 585
595 578
601 598
569 595
565 575
568 570
577 575
554 564
548 543
549 542
565 563
530 555
511 527
502 518
512 523
494 508
483 478
490 470
476 486
452 474
444 461
449 450
438 451
417 424
413 415
423 403
409 415
372 390
361 386
387 391
414 418
433 424
465 450
519 485
553 542
561 551
581 572
607 585
614 605
608 594
615 593
636 592
625 613
587 590
578 586
593 581
590 584
566 557
555 546
573 545
573 570
552 552
542 548
549 543
549 552
536 529
532 518
540 510
522 525
488 500
482 494
492 484
481 483
454 455
445 443
461 439
452 455
416 427
402 421
413 416
415 424
401 398
392 388
402 385
397 408
394 405
427 432
480 464
515 507
534 519
568 544
617 570
627 608
604 599
604 605
626 609
633 621
615 597
605 588
616 585
607 605
579 580
569 572
574 564
568 570
554 549
556 543
572 540
558 559
528 539
525 538
541 532
534 532
506 502
493 489
501 482
493 497
460 470
441 458
445 449
442 453
427 427
421 415
425 410
410 425
383 404
381 400
393 392
389 398
388 390
419 413
481 451
522 509
530 523
555 552
601 579
628 612
632 604
635 608
653 637
648 643
625 624
624 622
630 625
618 617
598 592
602 590
619 606
604 602
566 577
561 574
580 585
581 577
560 550
548 542
560 561
552 560
523 533
512 523
512 525
503 513
486 485
480 474
485 485
463 478
428 451
423 445
437 451
428 436
403 409
395 400
410 419
389 416
372 392
373 395
409 424
435 451
483 469
524 501
572 556
574 589
594 594
616 611
644 633
630 633
627 616
629 616
651 640
621 637
602 609
588 602
601 610
587 601
583 574
572 566
582 586
555 588
552 567
551 562
556 566
534 557
530 533
522 522
534 536
496 530
477 504
471 496
484 502
465 488
452 458
437 447
447 464
420 462
411 435
401 426
404 430
388 421
388 399
385 391
390 406
355 403
357 389
384 407
437 446
462 475
499 495
539 531
596 590
599 615
608 609
611 618
631 636
623 636
627 616
622 610
627 630
591 626
583 601
581 595
589 598
564 586
559 564
560 562
581 586
551 582
536 558
530 554
545 563
532 553
523 525
509 516
513 532
481 527
473 501
466 490
466 490
442 475
436 450
433 444
440 459
403 451
388 427
387 422
402 428
385 415
374 391
365 385
378 405
358 405
366 395
390 414
438 456
469 490
515 509
554 539
594 589
582 610
593 607
609 617
631 633
611 624
603 604
621 601
615 623
584 603
567 588
568 580
567 587
555 565
550 552
563 547
554 571
526 553
526 552
541 547
534 551
509 525
502 515
519 511
512 528
474 498
456 490
463 482
463 487
444 459
433 445
440 439
429 457
403 435
398 431
405 422
396 425
378 402
377 395
394 391
382 405
350 384
355 392
401 415
444 456
472 471
505 501
555 533
584 586
584 588
595 600
610 605
612 620
603 604
594 592
611 591
604 613
571 588
564 583
576 576
569 580
550 558
548 551
568 552
564 574
532 551
523 548
535 543
534 550
516 523
505 511
514 506
501 522
468 495
458 486
462 475
452 476
432 449
426 439
438 433
425 448
393 426
390 423
406 421
403 425
383 398
375 390
388 387
382 407
365 392
382 406
427 434
470 478
500 495
539 525
583 549
599 595
590 593
599 605
623 611
626 622
607 602
603 596
618 596
609 614
574 586
562 580
572 575
571 581
558 559
557 552
572 554
563 575
535 553
533 551
545 544
536 547
516 522
507 510
521 527
507 521
475 497
463 489
472 492
466 479
445 450
432 437
440 453
430 450
402 427
396 420
404 425
399 417
384 394
381 388
394 405
382 402
360 387
378 401
428 439
471 469
499 485
534 517
587 571
608 599
603 596
610 606
628 625
631 624
618 604
616 598
626 616
595 613
575 587
570 581
584 587
565 577
560 555
559 552
576 573
548 572
539 550
532 547
544 555
529 548
526 522
517 512
523 528
489 523
478 497
472 489
480 491
457 479
449 453
442 444
454 461
421 455
408 432
402 426
415 433
400 424
395 399
388 393
399 411
370 409
366 388
372 390
406 418
426 442
468 459
512 493
567 548
568 578
583 581
601 597
629 620
621 618
618 600
614 597
626 618
597 616
584 588
579 584
588 591
570 582
569 558
568 554
581 575
550 576
543 555
544 552
558 560
538 548
530 524
523 517
535 535
502 528
486 501
477 493
485 497
467 485
462 459
451 448
458 466
426 462
418 439
417 433
425 438
407 429
403 407
402 403
415 422
383 417
373 397
381 400
417 426
439 447
476 460
512 494
562 549
565 577
585 578
601 591
622 610
610 609
612 593
613 592
627 613
594 607
573 580
564 573
580 581
567 572
562 548
554 545
568 569
544 570
543 549
540 542
543 547
523 535
520 513
539 507
523 520
479 496
460 479
471 472
472 477
452 449
438 437
448 432
443 453
418 431
409 425
415 420
411 426
400 406
402 399
417 395
403 413
375 393
383 402
426 421
461 458
482 470
516 496
571 529
604 584
598 583
602 594
619 599
625 615
615 597
618 591
630 588
616 608
586 587
585 586
601 583
597 590
579 569
581 566
608 570
607 594
574 571
561 567
568 559
570 567
553 541
541 528
547 522
535 539
506 516
500 509
506 500
497 503
479 480
480 474
498 471
486 487
447 461
438 456
454 451
453 455
431 427
418 417
437 419
448 452
453 454
483 480
530 512
561 550
577 555
602 570
634 583
629 613
602 597
604 600
625 600
622 605
597 581
589 572
607 572
602 593
572 567
561 563
573 561
577 572
569 552
567 544
576 542
561 561
531 537
528 531
538 522
520 518
496 491
495 486
514 488
504 503
466 475
450 467
461 459
457 461
438 432
426 421
435 420
430 440
408 421
407 418
416 414
416 423
419 416
450 435
506 488
530 516
532 526
558 553
608 592
627 602
617 587
614 587
632 611
628 615
601 591
589 582
591 585
583 575
567 551
566 543
578 559
562 559
534 538
536 538
556 548
550 539
528 515
521 508
538 528
530 525
495 497
481 488
488 493
486 485
472 461
463 448
468 465
441 462
428 440
427 436
437 440
413 429
409 407
415 408
453 443
453 465
475 473
503 501
553 541
571 561
591 557
596 565
618 595
597 603
595 584
593 580
597 584
572 573
567 549
565 542
579 558
544 555
530 532
530 531
547 540
533 531
528 509
521 506
538 528
514 529
507 505
497 498
501 503
485 494
485 471
480 462
487 477
449 473
435 447
436 443
453 452
431 438
422 416
427 418
465 456
474 482
500 490
528 518
575 558
591 579
615 576
624 585
642 616
615 622
613 603
616 601
625 607
598 594
588 568
586 563
603 583
574 581
558 556
548 548
564 557
555 551
552 528
542 522
552 543
523 541
517 517
510 508
512 511
489 497
486 475
485 469
493 484
454 477
440 452
438 446
451 451
433 437
422 413
415 408
434 432
434 450
460 454
492 482
539 523
560 547
593 555
616 573
641 610
616 619
617 605
624 606
642 617
620 607
610 585
606 580
621 601
590 595
574 568
566 562
579 570
566 562
566 540
579 534
565 555
534 539
529 530
540 523
532 524
506 498
500 488
516 483
508 499
471 471
454 464
464 458
465 465
450 439
440 427
447 422
439 441
413 420
410 417
419 411
422 424
429 421
465 446
528 479
559 532
558 541
578 565
618 585
638 609
631 595
628 594
647 597
647 624
624 605
615 600
618 593
611 598
594 573
595 566
610 561
602 584
567 562
562 560
581 557
579 561
553 535
544 525
560 522
554 541
521 512
503 504
507 496
504 500
489 475
484 463
489 456
474 473
445 449
441 445
451 437
442 439
421 416
422 412
458 423
480 463
484 471
511 502
562 533
600 571
611 571
623 581
648 593
651 625
631 610
632 610
643 607
635 614
616 591
614 584
631 579
615 594
575 568
567 564
584 561
586 567
564 540
554 532
569 532
563 552
534 527
517 514
521 507
512 509
498 485
494 475
503 470
484 484
450 460
444 453
458 446
450 446
426 420
418 412
436 413
430 430
399 406
386 399
395 394
397 400
385 378
379 368
385 386
372 382
345 360
346 358
367 371
391 388
412 399
460 435
530 499
566 536
568 546
587 570
624 601
642 611
637 596
634 596
651 621
646 627
624 608
621 603
626 608
614 598
597 574
597 568
615 586
598 583
563 559
559 557
579 567
576 558
553 530
541 521
553 540
532 538
516 511
503 501
505 504
484 493
483 469
479 458
484 472
445 467
433 443
430 438
444 443
422 430
411 406
405 400
421 420
395 417
382 392
372 387
384 394
372 388
374 366
367 358
374 375
344 374
341 356
353 361
391 388
404 408
449 430
500 471
566 533
575 566
589 571
604 588
635 614
633 617
635 598
629 597
643 621
616 623
610 600
604 592
607 596
582 585
579 561
580 556
595 575
559 571
546 547
544 545
561 553
544 542
537 519
527 512
538 529
508 524
496 495
483 484
485 487
467 475
463 450
456 439
459 453
422 448
412 424
412 419
424 424
401 411
392 388
388 383
404 403
376 399
363 374
354 368
365 375
360 371
380 365
407 387
459 444
478 486
519 506
560 537
602 573
602 587
615 583
629 594
655 623
626 624
613 602
609 599
623 609
607 597
599 571
588 563
598 584
571 583
569 562
568 557
574 564
556 556
557 537
559 534
569 551
529 545
514 520
512 513
524 518
501 501
486 474
496 466
485 485
456 466
444 451
446 442
437 445
417 418
418 410
433 406
419 423
386 401
382 400
411 406
437 432
453 440
487 468
547 504
584 560
588 567
600 586
624 599
636 621
631 608
634 603
647 600
633 620
599 597
591 591
601 581
589 582
564 555
560 547
581 546
579 567
547 544
534 541
546 538
550 547
535 523
525 511
532 505
520 523
491 499
484 492
488 482
475 483
454 457
450 446
462 438
447 452
408 426
401 424
415 419
416 424
408 406
424 419
474 448
512 505
526 518
553 544
588 566
607 596
610 591
624 596
648 601
638 626
604 605
598 602
610 595
601 595
571 564
560 553
576 551
573 572
545 547
534 543
543 540
545 549
534 528
531 518
540 515
525 533
495 511
494 507
506 500
496 502
476 478
473 472
492 472
479 484
443 458
434 456
449 454
463 470
472 464
495 482
539 511
566 563
573 570
596 590
624 603
629 622
620 608
626 609
649 612
634 629
593 600
579 592
590 583
586 585
563 556
557 551
572 573
568 574
544 551
536 545
541 551
534 543
521 520
519 510
527 524
508 519
472 493
467 487
482 493
474 480
449 453
440 444
455 463
448 460
416 434
402 427
409 433
414 430
420 421
447 437
496 489
524 525
536 538
570 565
609 596
617 606
611 595
617 598
642 624
620 625
598 600
586 594
598 602
583 593
578 566
567 557
577 576
549 577
546 556
544 551
550 557
527 547
522 523
521 516
532 530
493 523
472 494
463 486
477 491
458 476
444 447
429 435
439 453
412 450
405 425
395 417
399 422
380 412
377 386
374 379
382 395
345 391
338 370
353 376
396 405
414 426
447 440
483 472
537 526
540 551
550 546
555 556
575 574
569 575
573 555
568 550
575 570
540 567
532 544
529 536
537 540
513 528
512 510
512 507
531 528
499 523
483 498
475 492
489 499
474 488
466 459
449 448
452 462
420 456
412 430
404 419
403 419
380 406
375 382
373 374
381 387
343 380
328 355
326 349
341 355
324 342
313 318
304 312
317 330
294 328
292 310
301 318
335 346
356 368
391 379
422 403
456 446
442 464
452 459
466 467
487 480
469 472
462 453
461 451
477 473
447 468
434 443
426 437
438 445
429 439
431 419
426 415
434 437
408 436
407 418
408 414
415 417
392 406
386 384
406 380
396 396
361 374
344 363
352 356
347 356
332 330
325 320
334 314
324 332
299 312
295 309
303 301
296 305
280 283
280 277
299 272
288 288
253 264
246 264
271 269
295 292
305 290
322 308
361 329
378 372
371 367
378 378
396 384
402 400
394 384
398 380
414 378
401 397
370 375
367 375
385 373
385 380
367 358
364 354
385 357
387 381
363 361
353 360
365 358
368 367
359 347
357 339
367 335
354 353
327 333
326 331
339 325
332 328
313 306
311 300
331 300
325 318
294 296
284 293
299 290
303 298
291 276
285 268
299 270
302 298
298 294
319 314
351 330
367 356
371 354
388 365
417 375
413 399
385 384
383 386
403 387
408 395
387 370
377 362
392 363
393 389
373 371
369 370
381 369
384 380
378 364
384 362
400 364
389 385
362 367
362 367
381 364
378 368
358 346
353 340
371 342
369 361
341 337
331 334
341 330
344 338
335 318
333 311
342 310
331 328
309 311
316 313
335 314
338 326
339 321
359 336
400 378
412 394
395 388
399 397
423 416
432 417
423 398
417 394
430 416
425 419
405 401
404 398
413 406
410 401
400 384
405 383
426 406
418 408
390 390
391 392
413 406
415 400
398 379
392 374
408 396
404 398
382 376
375 372
383 380
382 374
372 355
373 349
385 368
358 367
346 348
348 347
366 356
350 348
344 327
341 323
360 345
338 346
334 327
337 333
367 359
377 374
401 373
414 385
437 419
419 430
423 420
430 423
447 434
430 429
429 412
431 412
452 435
426 434
414 414
411 413
431 426
425 424
426 404
422 402
431 421
410 426
413 410
414 409
424 418
407 412
409 394
413 391
428 410
395 408
385 388
385 387
404 397
392 388
385 366
379 362
395 384
373 385
369 364
363 359
372 366
361 362
368 347
371 345
381 363
349 362
345 344
355 348
384 368
386 377
400 378
417 395
452 433
441 445
440 432
440 437
459 452
452 450
457 433
454 430
466 454
440 455
439 438
444 437
458 446
441 442
441 426
448 429
470 454
444 454
435 436
436 436
454 447
445 442
442 420
436 418
448 439
425 440
422 420
421 415
428 422
412 415
413 398
417 396
431 415
399 413
390 393
394 392
413 401
399 391
392 372
388 369
404 391
382 391
377 369
372 365
382 373
371 367
379 353
412 360
418 398
408 405
425 421
462 439
481 462
467 447
470 451
495 458
500 487
479 471
472 471
484 472
488 484
480 468
483 462
500 462
493 486
469 470
472 474
493 475
494 485
477 468
477 464
500 466
500 488
469 466
457 463
471 461
476 472
467 452
466 447
477 444
469 465
444 444
442 442
453 436
447 443
432 422
433 418
455 417
447 435
415 414
408 413
426 411
430 420
414 396
406 389
421 387
418 408
398 389
400 392
421 402
439 430
450 433
474 450
510 467
513 503
493 494
498 502
524 507
529 520
513 502
511 500
533 504
534 528
509 507
501 506
514 506
520 519
513 502
517 499
533 502
526 526
501 509
504 510
522 508
518 515
498 493
496 488
518 490
513 509
480 484
471 481
485 478
488 486
475 463
462 448
472 447
468 469
446 450
446 447
456 443
450 449
436 430
438 425
458 425
448 442
416 420
411 418
429 416
432 423
415 398
407 393
426 398
436 430
432 428
450 447
483 468
501 496
508 497
527 510
557 546
551 553
527 538
530 542
554 557
554 551
536 531
532 528
553 552
552 555
527 534
521 533
536 547
542 547
535 529
536 525
549 546
533 544
509 524
511 523
528 532
520 523
501 502
500 496
520 516
512 513
478 488
470 484
486 493
488 487
475 463
467 455
477 475
457 475
448 454
447 448
456 455
436 448
434 428
436 424
455 444
429 445
417 424
414 421
437 435
436 438
450 432
467 451
506 498
505 522
521 521
530 533
551 555
544 559
553 547
559 548
576 571
545 574
537 554
540 554
555 560
540 552
536 534
535 534
558 561
538 565
532 544
527 544
541 555
531 551
534 530
530 523
539 542
507 540
501 517
502 513
514 517
492 507
485 483
483 478
502 497
474 494
463 472
461 471
476 479
465 472
462 447
453 440
464 460
437 459
434 438
433 432
440 438
422 430
425 413
436 419
469 455
460 476
475 480
498 503
538 536
542 547
550 539
553 547
576 579
557 585
556 565
553 564
563 575
549 569
552 550
554 547
567 568
535 569
531 550
538 552
559 563
542 556
537 537
536 536
555 559
529 556
518 532
511 526
521 532
508 523
507 499
501 492
507 510
476 506
471 484
474 479
483 483
463 473
457 452
458 448
475 469
446 464
434 442
431 438
447 448
437 440
433 416
442 408
437 433
426 432
445 446
483 467
504 502
512 508
534 526
574 544
583 580
558 569
556 576
577 580
585 594
572 572
565 565
579 563
576 587
553 567
549 564
559 562
559 573
548 556
554 553
576 552
566 575
534 554
529 552
547 548
545 553
525 528
516 518
538 520
534 540
505 514
493 506
498 500
496 505
484 483
484 473
496 467
484 486
456 463
453 461
470 457
465 461
445 439
442 433
462 432
460 452
432 432
431 438
462 453
490 487
506 492
526 511
561 535
572 577
562 574
571 584
592 587
590 600
576 582
578 580
601 581
593 600
558 577
552 575
570 574
576 584
562 562
557 558
575 561
574 585
551 565
547 562
555 557
550 564
535 541
536 533
551 528
535 544
500 519
495 515
512 510
511 513
488 486
480 478
491 472
486 490
459 466
452 463
461 459
462 466
452 444
451 437
462 435
450 454
425 434
430 437
459 445
474 470
481 475
505 498
553 529
572 573
557 568
561 581
586 590
595 607
585 587
582 582
597 606
592 610
565 587
563 582
574 588
566 582
552 561
555 559
579 582
570 583
537 562
534 560
553 572
556 566
537 539
527 531
539 549
532 549
507 524
499 515
503 521
498 512
484 489
484 482
497 498
481 495
450 472
449 468
467 476
464 467
443 443
436 437
454 459
438 459
432 442
438 453
473 486
488 508
518 515
540 534
570 576
555 595
560 587
569 594
590 608
572 602
565 581
563 577
583 597
554 594
540 569
532 565
549 577
542 574
544 553
540 551
553 574
528 578
526 558
527 554
536 561
510 548
507 527
510 523
527 542
492 537
477 512
475 508
491 517
478 507
472 482
463 476
477 495
452 494
447 469
440 463
445 469
430 462
432 440
432 435
448 456
427 467
439 466
469 492
514 529
523 546
536 548
549 563
581 602
565 611
561 592
556 592
568 603
556 597
556 575
551 567
557 584
526 583
526 565
534 565
547 574
529 566
525 546
526 544
546 567
517 563
502 538
496 532
510 539
497 529
492 502
481 493
488 512
460 508
455 484
454 476
458 479
438 469
435 448
437 445
452 464
419 460
408 439
410 437
433 451
430 450
443 448
463 471
505 524
510 553
531 556
547 574
569 599
565 603
573 591
578 592
589 614
555 613
548 591
550 587
565 593
544 579
532 555
547 550
547 576
525 561
517 553
526 551
527 561
518 542
519 534
532 527
519 546
487 522
481 518
496 511
491 514
468 489
461 479
479 476
476 494
444 468
432 463
441 458
444 467
438 448
445 449
474 464
492 511
493 519
523 548
559 567
570 592
564 584
571 588
598 592
593 614
558 592
548 588
562 583
564 590
546 561
537 551
550 548
546 571
524 552
521 549
530 545
528 554
515 534
517 528
535 524
522 542
488 518
480 513
497 508
496 511
473 483
459 470
475 466
472 486
444 461
436 458
447 454
448 460
433 436
428 426
439 424
433 445
414 429
428 443
467 463
494 501
510 511
534 534
576 559
589 598
568 587
566 594
584 598
591 611
581 590
577 583
589 583
579 603
553 581
553 577
565 572
560 580
546 560
549 557
573 560
560 575
524 550
517 547
537 546
539 553
520 525
509 515
521 513
514 530
489 506
482 498
487 491
482 496
469 474
469 467
485 464
471 481
441 459
440 457
459 454
458 458
438 435
430 427
449 451
447 450
428 432
418 426
428 435
435 435
442 431
468 449
512 501
533 535
537 547
564 573
603 604
611 612
601 601
606 604
632 631
629 635
597 611
588 609
603 618
605 613
593 589
587 581
599 602
592 605
570 585
573 583
584 591
576 584
560 561
560 555
578 574
550 568
527 541
519 535
534 542
520 532
512 502
500 493
512 511
487 510
482 486
476 479
482 485
464 477
464 455
465 448
478 465
443 463
433 441
433 438
452 447
437 437
428 414
423 409
440 431
418 430
408 404
408 408
440 437
462 464
500 478
533 508
575 560
570 588
585 590
603 605
629 624
615 622
612 605
615 606
637 630
611 629
596 605
589 601
606 612
597 606
596 582
590 578
603 603
583 609
580 588
580 583
588 588
565 578
560 554
560 548
575 565
539 558
520 531
511 520
527 527
515 518
508 491
498 485
511 505
487 504
482 480
477 473
482 479
466 471
468 450
468 445
478 462
443 459
434 437
437 434
454 441
436 430
426 407
422 403
437 422
417 422
416 405
433 424
474 461
497 488
534 503
563 531
599 581
590 604
604 602
620 611
640 627
623 622
620 606
624 607
645 631
613 626
601 602
596 599
614 609
598 598
596 575
593 574
607 600
579 599
580 580
581 575
587 581
565 569
560 546
584 543
574 559
534 537
520 525
532 519
535 526
520 500
508 487
519 483
515 504
491 483
487 478
494 473
488 479
474 458
475 452
495 447
483 465
448 441
441 438
458 434
459 439
440 415
439 414
475 431
501 480
510 491
534 520
572 548
599 585
609 587
624 595
650 604
648 635
625 622
624 623
642 620
639 626
616 602
609 593
631 593
630 616
600 592
590 590
604 589
610 600
600 580
596 570
606 568
595 587
566 564
562 558
571 548
561 550
539 525
536 515
554 512
545 527
507 500
496 494
510 490
513 498
497 472
487 462
499 460
494 480
471 460
467 454
473 448
468 453
455 432
458 427
484 433
492 470
488 476
518 508
572 540
606 579
613 583
627 600
663 618
672 654
652 638
648 639
660 639
661 650
649 629
648 621
660 618
646 638
616 615
617 614
636 612
632 618
612 596
610 591
632 594
627 612
592 585
579 579
590 573
590 578
574 550
564 538
571 535
558 550
531 526
528 520
537 511
528 514
509 490
509 484
528 504
517 498
482 474
474 470
491 479
493 471
476 445
467 438
487 464
499 481
504 487
533 515
576 557
605 585
622 594
648 615
682 652
679 665
654 650
658 655
682 670
681 664
660 640
652 634
670 654
664 655
636 629
626 624
637 634
638 629
628 608
627 601
637 620
609 618
594 595
593 590
602 591
576 576
566 551
562 544
579 563
551 559
535 531
525 525
538 532
526 525
525 500
517 491
526 511
496 510
492 488
492 483
500 488
479 478
476 456
479 455
509 484
498 502
513 508
545 539
599 585
618 610
638 611
648 626
676 664
661 675
662 659
660 657
670 667
654 662
653 640
653 634
664 652
627 649
616 625
617 623
636 632
618 620
610 598
605 594
629 621
602 619
590 590
578 582
586 587
570 577
567 552
561 542
565 558
529 553
522 529
523 524
534 529
511 517
502 493
501 488
519 508
490 503
475 478
468 473
481 480
469 472
470 450
473 455
504 496
507 525
538 538
573 566
611 603
615 619
632 618
648 631
673 663
644 666
634 647
636 647
655 659
640 649
631 623
621 617
635 640
610 640
607 618
605 614
613 623
599 617
601 598
602 593
611 611
572 605
561 580
562 575
576 580
553 563
541 538
535 533
550 553
523 548
511 522
502 515
513 522
501 513
496 487
511 480
496 500
472 490
480 494
519 511
547 544
556 552
581 574
628 600
650 646
634 638
632 644
647 648
654 663
644 644
640 634
649 628
637 648
607 624
603 620
616 614
610 620
591 599
591 592
615 594
613 615
583 597
570 591
583 587
585 593
566 565
554 552
562 545
553 563
525 539
517 530
522 521
514 525
497 501
497 492
515 488
501 505
466 481
460 478
477 474
480 481
468 463
478 473
522 498
555 553
559 561
582 587
617 611
640 643
644 639
655 643
677 647
669 673
639 654
639 654
657 651
651 654
627 629
621 620
640 620
638 642
607 618
596 614
608 611
611 621
599 597
593 587
600 581
588 599
560 577
561 575
569 564
557 565
534 538
531 529
550 527
538 541
501 515
491 510
507 505
511 512
493 485
478 471
487 468
483 490
464 472
470 476
499 490
525 523
546 535
583 564
633 593
646 637
631 633
640 646
670 654
676 666
658 644
651 640
670 644
665 665
636 639
623 630
631 625
634 636
625 617
625 610
638 630
622 628
592 605
592 603
608 610
598 597
573 570
566 561
584 579